7250.0,5.377196317179559
7250.004,5.341940860979659
7250.008,5.323129136140641
7250.012,5.29275391015457
7250.0160000000005,5.273281070385106
7250.02,5.268785488858082
7250.024,5.264975062804428
7250.028,5.259037048701887
7250.032,5.258015325627564
7250.036,5.262691211226527
7250.04,5.260563623177641
7250.044,5.255034298304832
7250.048,5.251476297951893
7250.052000000001,5.250526696506345
7250.0560000000005,5.248339007100145
7250.06,5.245550304120815
7250.064,5.242160587568353
7250.068,5.237148134368435
7250.072,5.236438938352141
7250.076,5.235381154463429
7250.08,5.235032566591013
7250.084,5.228866167330683
7250.088,5.2226757275274265
7250.092000000001,5.210667476336258
7250.0960000000005,5.2075301854845115
7250.1,5.2043688540898385
7250.104,5.193286163801292
7250.108,5.186230264452727
7250.112,5.176265459410206
7250.116,5.163079221615698
7250.12,5.150974808252828
7250.124,5.145601746909032
7250.128,5.143185672345043
7250.1320000000005,5.134987847207527
7250.136,5.127871846501649
7250.14,5.120323116023117
7250.144,5.115046216851021
7250.148,5.115070257393946
7250.152,5.116837237298954
7250.156,5.120864028238935
7250.16,5.12431384614871
7250.164,5.1259966841534785
7250.168000000001,5.135540779694809
7250.1720000000005,5.14614265912485
7250.176,5.156492112854176
7250.18,5.162478208042566
7250.184,5.172779580686043
7250.188,5.183994493960678
7250.192,5.191867771768702
7250.196,5.199043873831894
7250.2,5.205270374449536
7250.204,5.214838510533791
7250.2080000000005,5.220656321921705
7250.212,5.229515261989665
7250.216,5.23798955337082
7250.22,5.2429058443990355
7250.224,5.243951608016285
7250.228,5.244684844575505
7250.232,5.242797661955873
7250.236,5.242184628111278
7250.24,5.241631695623997
7250.244000000001,5.2384463236864
7250.2480000000005,5.239011276445144
7250.252,5.240309465763108
7250.256,5.241030682050865
7250.26,5.243062107928051
7250.264,5.242148567296891
7250.268,5.233457911029408
7250.272,5.226978984711049
7250.276,5.227411714483704
7250.28,5.229010410588233
7250.284000000001,5.219694700204694
7250.2880000000005,5.218697017673296
7250.292,5.2431342295568255
7250.296,5.258844724358486
7250.3,5.2541928793024475
7250.304,5.252029230439174
7250.308,5.247605770540925
7250.312,5.2395762292038865
7250.316,5.237869350656194
7250.32,5.240634013092599
7250.3240000000005,5.2444083783318645
7250.328,5.246511925837825
7250.332,5.2451536351625485
7250.336,5.247437486740448
7250.34,5.24844718954331
7250.344,5.251764784466996
7250.348,5.25922937304529
7250.352,5.265479914205859
7250.356,5.269013874015872
7250.360000000001,5.2706726714777155
7250.3640000000005,5.270696712020641
7250.368,5.270744793106491
7250.372,5.271526110751562
7250.376,5.273461374457045
7250.38,5.2723074283966325
7250.384,5.2707688336494165
7250.388,5.272127124324694
7250.392,5.271994901338605
7250.396,5.257438352597358
7250.400000000001,5.229527282261127
7250.404,5.190822008151452
7250.408,5.154220281547739
7250.412,5.181626500482539
7250.416,5.275913509835422
7250.42,5.363829775313113
7250.424,5.451589777261787
7250.428,5.536248549173102
7250.432,5.514455797011352
7250.436000000001,5.451229169117908
7250.4400000000005,5.4127041990801725
7250.444,5.377761269938302
7250.448,5.35925005188585
7250.452,5.354177497328619
7250.456,5.348780395441898
7250.46,5.31759981126783
7250.464,5.300987796106473
7250.468,5.271393887765473
7250.472,5.247665871898238
7250.476000000001,5.2398046143616765
7250.4800000000005,5.236583181609692
7250.484,5.235224890934415
7250.488,5.2348763030619985
7250.492,5.233061242071141
7250.496,5.230849512122017
7250.5,5.230152336377184
7250.504,5.230416782349362
7250.508,5.229803748504768
7250.512,5.227519896926868
7250.5160000000005,5.22634191032353
7250.52,5.223745531687602
7250.524,5.222363200469399
7250.528,5.2198990448195595
7250.532,5.219334092060816
7250.536,5.215872253879578
7250.54,5.209693834347785
7250.544,5.204513097347391
7250.548,5.199801150934039
7250.552000000001,5.194139603075139
7250.5560000000005,5.187961183543346
7250.56,5.1813019531530475
7250.564,5.173620999688426
7250.568,5.165903985409416
7250.572,5.159990011849802
7250.576,5.152753808429297
7250.58,5.143834767004025
7250.584,5.136454320325968
7250.588,5.129626806135193
7250.592000000001,5.125059102979393
7250.5960000000005,5.123772933932893
7250.6,5.121128474211113
7250.604,5.12175352832717
7250.608,5.125299508408647
7250.612,5.127487197814845
7250.616,5.129614785863731
7250.62,5.135697043223823
7250.624,5.14372658456086
7250.628,5.151323396125245
7250.6320000000005,5.159292836104969
7250.636,5.1685123843168075
7250.64,5.176638087825547
7250.644,5.18633844689589
7250.648,5.195389711307254
7250.652,5.205618962321952
7250.656,5.215271240306446
7250.66,5.224875437205088
7250.664,5.2280608091426855
7250.668000000001,5.234070944874001
7250.6720000000005,5.240225323862869
7250.676,5.243398675529004
7250.68,5.247834155698715
7250.684,5.249396790988857
7250.688,5.248098601670893
7250.692,5.2519450885389345
7250.696,5.25585167676429
7250.7,5.262751312583841
7250.704,5.268040232027399
7250.7080000000005,5.26973509030363
7250.712,5.271021259350132
7250.716,5.271982881067141
7250.72,5.270348124148224
7250.724,5.265299610133919
7250.728,5.263075859913332
7250.732,5.264049501901805
7250.736,5.266044866964601
7250.74,5.259361596031378
7250.744000000001,5.261140596207848
7250.7480000000005,5.27841372629965
7250.752,5.28079374004925
7250.756,5.278101199241622
7250.76,5.279435449373974
7250.764,5.277031395081448
7250.768,5.273329151470957
7250.772,5.274410975902593
7250.776,5.280120604847343
7250.78,5.282692942940347
7250.784000000001,5.2836906254717455
7250.7880000000005,5.286034578406959
7250.792,5.2888473219292145
7250.796,5.293042396669674
7250.8,5.299040512129527
7250.804,5.304954485689142
7250.808,5.309882796988821
7250.812,5.3113252295643365
7250.816,5.313993729829041
7250.82,5.316493946293268
7250.8240000000005,5.316337682764254
7250.828,5.316373743578642
7250.832,5.3173954666529655
7250.836,5.318248905926812
7250.84,5.31919850737236
7250.844,5.32148235895026
7250.848,5.316578088193506
7250.852,5.2949776603751575
7250.856,5.2648308195468765
7250.860000000001,5.2283492956577895
7250.8640000000005,5.213444159044126
7250.868,5.270227921433597
7250.872,5.377713188852452
7250.876,5.46690360310518
7250.88,5.556322402515698
7250.884,5.599691541952874
7250.888,5.546826388060218
7250.892,5.487770794364308
7250.896,5.443151546695019
7250.900000000001,5.413569658625482
7250.904,5.399433819385427
7250.908,5.397835123280897
7250.912,5.40748740126539
7250.916,5.381078864861989
7250.92,5.363721592869949
7250.924,5.346941293908115
7250.928,5.322528122567509
7250.932,5.310880479520219
7250.936000000001,5.308560567127931
7250.9400000000005,5.307598945410921
7250.944,5.307598945410921
7250.948,5.307598945410921
7250.952,5.305543478990811
7250.956,5.3045818572738
7250.96,5.30321154632706
7250.964,5.3011079988211
7250.968,5.29978576896021
7250.972,5.298271214755919
7250.976000000001,5.299930012217762
7250.9800000000005,5.30321154632706
7250.984,5.299942032489224
7250.988,5.293511187256716
7250.992,5.2905421802054455
7250.996,5.282765064569123
7251.0,5.2777886721835925
7251.004,5.277476145125565
7251.008,5.271718435094964
7251.012,5.259986650147435
7251.0160000000005,5.246560006923676
7251.02,5.238566526401026
7251.024,5.234215188131553
7251.028,5.2281209104999995
7251.032,5.222531484269876
7251.036,5.216461247181246
7251.04,5.208960597788565
7251.044,5.203022583686025
7251.048,5.2002218604352315
7251.052000000001,5.197637502070766
7251.0560000000005,5.196219110038175
7251.06,5.198202454829509
7251.064,5.20007761717768
7251.068,5.203250968843815
7251.072,5.206736847567978
7251.076,5.212398395426877
7251.08,5.217567112155808
7251.084,5.222218957211847
7251.088,5.229827789047693
7251.092000000001,5.238410262872012
7251.0960000000005,5.247786074612865
7251.1,5.25489005504728
7251.104,5.260767967792507
7251.108,5.26882154967247
7251.112,5.274398955631131
7251.116,5.278798374986454
7251.12,5.281779402309187
7251.124,5.286046598678421
7251.128,5.291419660022218
7251.1320000000005,5.295867160463392
7251.136,5.298126971498367
7251.14,5.2969009038091786
7251.144,5.296961005166492
7251.148,5.296864842994791
7251.152,5.294424727887876
7251.156,5.295278167161723
7251.16,5.296047464535332
7251.164,5.296600397022613
7251.168000000001,5.295350288790499
7251.1720000000005,5.289772882831837
7251.176,5.28595043650672
7251.18,5.284423862030966
7251.184,5.284976794518246
7251.188,5.286262963564749
7251.192,5.278954638515469
7251.196,5.276093813907362
7251.2,5.28772943668319
7251.204,5.294617052231278
7251.2080000000005,5.292537545268242
7251.212,5.29120329513589
7251.216,5.2906744031915345
7251.22,5.284471943116817
7251.224,5.283522341671269
7251.228,5.285830233792093
7251.232,5.285469625648215
7251.236,5.284351740402189
7251.24,5.282356375339393
7251.244000000001,5.2831737537988515
7251.2480000000005,5.288270348899008
7251.252,5.2993169783731675
7251.256,5.307755208939935
7251.26,5.313777364942713
7251.264,5.313933628471728
7251.268,5.314137973086592
7251.272,5.314690905573873
7251.276,5.316301621949866
7251.28,5.316674250365208
7251.284000000001,5.317215162581026
7251.2880000000005,5.319474973616001
7251.292,5.3209174061915165
7251.296,5.321290034606858
7251.3,5.317840216697083
7251.304,5.298427478284933
7251.308,5.2704803471343125
7251.312,5.23557347880683
7251.316,5.205667043407803
7251.32,5.236138431565575
7251.3240000000005,5.338370840355258
7251.328,5.441444668147326
7251.332,5.535659555871434
7251.336,5.621087625156358
7251.34,5.596518190286739
7251.344,5.53400075840959
7251.348,5.492855369193002
7251.352,5.4537173653106725
7251.356,5.4334752281676
7251.360000000001,5.42616690311832
7251.3640000000005,5.422921429823409
7251.368,5.387581831723272
7251.372,5.357507112523768
7251.376,5.327925224454231
7251.38,5.296179687521421
7251.384,5.280433131905372
7251.388,5.276574624765868
7251.392,5.275276435447903
7251.396,5.274170570473341
7251.400000000001,5.269122056459036
7251.404,5.265876583164125
7251.408,5.264073542444731
7251.412,5.26311192072772
7251.416,5.2604915015488665
7251.42,5.255082379390682
7251.424,5.254204899573909
7251.428,5.25242589939744
7251.432,5.249613155875185
7251.436000000001,5.244071810730912
7251.4400000000005,5.236487019437991
7251.444,5.230813451307628
7251.448,5.224118160102943
7251.452,5.21743488916972
7251.456,5.211220408823539
7251.46,5.202553793098982
7251.464,5.19487283963436
7251.468,5.188225629515524
7251.472,5.177130918955515
7251.476000000001,5.166985809841053
7251.4800000000005,5.15824707248772
7251.484,5.148931362104181
7251.488,5.136838969012772
7251.492,5.128016089759201
7251.496,5.122871413573195
7251.5,5.117354108971846
7251.504,5.1119329665422
7251.508,5.109504871706749
7251.512,5.106439702483777
7251.5160000000005,5.103650999504446
7251.52,5.103602918418596
7251.524,5.106668087641568
7251.528,5.113495601832342
7251.532,5.122138177013974
7251.536,5.12855700197502
7251.54,5.137728469101007
7251.544,5.145000733335899
7251.548,5.1554223086940025
7251.552000000001,5.16842824241657
7251.5560000000005,5.180111946278248
7251.56,5.190834028422915
7251.564,5.1991760968179825
7251.568,5.206664725939202
7251.572,5.216052557951517
7251.576,5.223733511416139
7251.58,5.227772322627583
7251.584,5.230104255291334
7251.588,5.234720039532983
7251.592000000001,5.238013593913745
7251.5960000000005,5.239684411647051
7251.6,5.240994621236478
7251.604,5.241391290194745
7251.608,5.244901209461833
7251.612,5.245958993350545
7251.616,5.243939587744823
7251.62,5.243146249828289
7251.624,5.24387948638751
7251.628,5.238085715542521
7251.6320000000005,5.229070511945547
7251.636,5.227507876655404
7251.64,5.228505559186803
7251.644,5.219826923190784
7251.648,5.220079348891499
7251.652,5.234539735461045
7251.656,5.240790276621613
7251.66,5.242292810554442
7251.664,5.245357979777413
7251.668000000001,5.245141614891086
7251.6720000000005,5.241247046937193
7251.676,5.241547553723759
7251.68,5.247786074612865
7251.684,5.250478615420494
7251.688,5.248639513886711
7251.692,5.25329135894275
7251.696,5.256933501195927
7251.7,5.2598063460754965
7251.704,5.2694946848743776
7251.7080000000005,5.277512205939953
7251.712,5.284207497144639
7251.716,5.28490467288947
7251.72,5.284952753975321
7251.724,5.285481645919677
7251.728,5.287813578583428
7251.732,5.2904460180337445
7251.736,5.290686423462996
7251.74,5.292128856038513
7251.744000000001,5.290506119391058
7251.7480000000005,5.288654997585812
7251.752,5.288931463829453
7251.756,5.279916260232479
7251.76,5.256645014680824
7251.764,5.223457045172498
7251.768,5.1834535817448595
7251.772,5.194115562532214
7251.776,5.281274550907756
7251.78,5.373494073569068
7251.784000000001,5.456133439874662
7251.7880000000005,5.552199449404014
7251.792,5.558762517622611
7251.796,5.50403422165325
7251.8,5.469668265541585
7251.804,5.441072039731984
7251.808,5.425638011173964
7251.812,5.418161402324207
7251.816,5.415048152015386
7251.82,5.3817399797924335
7251.8240000000005,5.354586186558349
7251.828,5.323153176683566
7251.832,5.291599964094157
7251.836,5.281166368464593
7251.84,5.2780170573413825
7251.844,5.2746874421462335
7251.848,5.271478029665711
7251.852,5.269843272746794
7251.856,5.269350441616825
7251.860000000001,5.267451238725729
7251.8640000000005,5.264626474932012
7251.868,5.264265866788132
7251.872,5.2662011304936165
7251.876,5.267186792753552
7251.88,5.264289907331058
7251.884,5.26201807602462
7251.888,5.261465143537339
7251.892,5.264109603259119
7251.896,5.258027345899027
7251.900000000001,5.247834155698715
7251.904,5.242485134897843
7251.908,5.2385304655866385
7251.912,5.234924384147849
7251.916,5.229443140360889
7251.92,5.219394193418128
7251.924,5.213119611714635
7251.928,5.206460381324337
7251.932,5.197541339899065
7251.936000000001,5.187997244357733
7251.9400000000005,5.181782764011553
7251.944,5.175123533621255
7251.948,5.167779147757587
7251.952,5.162177701256001
7251.956,5.161095876824364
7251.96,5.159749606420549
7251.964,5.159881829406639
7251.968,5.161456484968244
7251.972,5.167021870655442
7251.976000000001,5.173645040231351
7251.9800000000005,5.179559013790966
7251.984,5.186254304995653
7251.988,5.194656474748033
7251.992,5.204537137890316
7251.996,5.214237496960659
7252.0,5.22387775467369
7252.004,5.235501357178055
7252.008,5.246547986652214
7252.012,5.2567171363096
7252.0160000000005,5.26374899511524
7252.02,5.272391570296872
7252.024,5.281394753622382
7252.028,5.289340153059182
7252.032,5.2904460180337445
7252.036,5.293114518298449
7252.04,5.2970331267952675
7252.044,5.299593444616808
7252.048,5.302550431396615
7252.052000000001,5.301408505607665
7252.0560000000005,5.302370127324676
7252.06,5.303548113928014
7252.064,5.30430539103016
7252.068,5.305158830304006
7252.072,5.305603580348124
7252.076,5.304882364060366
7252.08,5.30321154632706
7252.084,5.301648911036918
7252.088,5.30384862071458
7252.092000000001,5.301011836649399
7252.0960000000005,5.295121903632709
7252.1,5.304101046415295
7252.104,5.317419507195891
7252.108,5.320869325105666
7252.112,5.320652960219339
7252.116,5.3183811289129
7252.12,5.3163497030357165
7252.124,5.316421824664492
7252.128,5.317203142309563
7252.1320000000005,5.319018203300421
7252.136,5.320124068274983
7252.14,5.323213278040879
7252.144,5.32805744744032
7252.148,5.333358387155339
7252.152,5.3415081312070045
7252.156,5.348527969741182
7252.16,5.352879308010655
7252.164,5.355884375876313
7252.168000000001,5.35879328157027
7252.1720000000005,5.360752585818679
7252.176,5.359730862744355
7252.18,5.363553309069472
7252.184,5.365524633589343
7252.188,5.366053525533699
7252.192,5.365320288974479
7252.196,5.368289296025749
7252.2,5.368072931139421
7252.204,5.358745200484419
7252.2080000000005,5.338935793114001
7252.212,5.3089091550003475
7252.216,5.27242763111126
7252.22,5.28024080756197
7252.224,5.363841795584575
7252.228,5.467937346450966
7252.232,5.5543150171814375
7252.236,5.650344965896404
7252.24,5.654912669052204
7252.244000000001,5.592912108847949
7252.2480000000005,5.543677076937009
7252.252,5.507712424720816
7252.256,5.4828545033360925
7252.26,5.4735267726810894
7252.264,5.476279414846032
7252.268,5.469536042555496
7252.272,5.441468708690251
7252.276,5.42822236953843
7252.28,5.401405143905299
7252.284000000001,5.386319703219696
7252.2880000000005,5.381667858163658
7252.292,5.3791556214279685
7252.296,5.374732161529719
7252.3,5.376186614376698
7252.304,5.382172709565088
7252.308,5.38277372313822
7252.312,5.380934621604438
7252.316,5.380838459432736
7252.32,5.382449175808729
7252.3240000000005,5.38487727064418
7252.328,5.381872202778522
7252.332,5.376174594105235
7252.336,5.367832525710169
7252.34,5.366390093134653
7252.344,5.366137667433938
7252.348,5.367183431051187
7252.352,5.362459464366372
7252.356,5.358468734240779
7252.360000000001,5.3523383957948365
7252.3640000000005,5.343419354369564
7252.368,5.3370726510372934
7252.372,5.332649191139045
7252.376,5.327624717667665
7252.38,5.3272160284379355
7252.384,5.324210960572278
7252.388,5.318369108641439
7252.392,5.314534642044859
7252.396,5.309161580701063
7252.400000000001,5.3048342829745145
7252.404,5.301757093480082
7252.408,5.302117701623961
7252.412,5.303920742343355
7252.416,5.306324796635882
7252.42,5.311733918794066
7252.424,5.316542027379119
7252.428,5.320965487277367
7252.432,5.327059764908921
7252.436000000001,5.335810522533716
7252.4400000000005,5.342361570480852
7252.444,5.347878875082201
7252.448,5.35678589623601
7252.452,5.36546453223203
7252.456,5.373289728954203
7252.46,5.379985020158889
7252.464,5.386115358604831
7252.468,5.389541135971681
7252.472,5.394938237858403
7252.476000000001,5.399638164000292
7252.4800000000005,5.405371833487967
7252.484,5.408761550040429
7252.488,5.409819333929141
7252.492,5.4116944962773115
7252.496,5.414783706043208
7252.5,5.4159015912892325
7252.504,5.418846557797577
7252.508,5.417776753637403
7252.512,5.410035698815468
7252.5160000000005,5.40200615747843
7252.52,5.4031120224529925
7252.524,5.402018177749893
7252.528,5.39876068418352
7252.532,5.3976307786660325
7252.536,5.399590082914442
7252.54,5.397378352965317
7252.544,5.388747798055149
7252.548,5.393471764739962
7252.552000000001,5.412980665323813
7252.5560000000005,5.419111003769755
7252.56,5.410732874560301
7252.564,5.403881319826601
7252.568,5.3967172380348725
7252.572,5.391933169992745
7252.576,5.397606738123107
7252.58,5.402102319650131
7252.584,5.397450474594093
7252.588,5.3967172380348725
7252.592000000001,5.394745913515001
7252.5960000000005,5.390202250902126
7252.6,5.401705650691865
7252.604,5.415468861516578
7252.608,5.422957490637797
7252.612,5.426924180220466
7252.616,5.428751261482786
7252.62,5.435398471601621
7252.624,5.434484930970461
7252.628,5.435915343274514
7252.6320000000005,5.437658282636596
7252.636,5.44210578307777
7252.64,5.43461715395655
7252.644,5.437117370420777
7252.648,5.440747492402493
7252.652,5.43964162742793
7252.656,5.425289423301548
7252.66,5.401501306077
7252.664,5.3663059512344145
7252.668000000001,5.346328260063521
7252.6720000000005,5.388747798055149
7252.676,5.487890997078934
7252.68,5.571516025644463
7252.684,5.665226061967142
7252.688,5.705373768652332
7252.692,5.6725584275593475
7252.696,5.619885598010095
7252.7,5.585062871582849
7252.704,5.552163388589627
7252.7080000000005,5.535731677500209
7252.712,5.531777008189003
7252.716,5.533123278592818
7252.72,5.499045808996257
7252.724,5.480173982799926
7252.728,5.449882898714093
7252.732,5.427741558679925
7252.736,5.4097351920289025
7252.74,5.4094106446994115
7252.744000000001,5.400563724902915
7252.7480000000005,5.394156920213333
7252.752,5.39332752148241
7252.756,5.395370967631058
7252.76,5.398736643640595
7252.764,5.396597035320246
7252.768,5.396392690705381
7252.772,5.3953469270881325
7252.776,5.3940727783130935
7252.78,5.3884593115400445
7252.784000000001,5.375092769673598
7252.7880000000005,5.362351281923209
7252.792,5.355235281217331
7252.796,5.35587235560485
7252.8,5.344885827488005
7252.804,5.335726380633479
7252.808,5.331867873493974
7252.812,5.328273812326646
7252.816,5.324775913331021
7252.82,5.329355636758284
7252.8240000000005,5.325557230976092
7252.828,5.290890768077861
7252.832,5.264386069502759
7252.836,5.255671372692351
7252.84,5.252089331796487
7252.844,5.2462955609514985
7252.848,5.240862398250389
7252.852,5.236462978895066
7252.856,5.233698316458661
7252.860000000001,5.232364066326308
7252.8640000000005,5.232063559539742
7252.868,5.235465296363667
7252.872,5.243218371457065
7252.876,5.247786074612865
7252.88,5.25118781143679
7252.884,5.258796643272635
7252.888,5.2665977994518824
7252.892,5.276875131552433
7252.896,5.286936098766656
7252.900000000001,5.297790403897413
7252.904,5.307659046768234
7252.908,5.3173954666529655
7252.912,5.330245136846519
7252.916,5.339200239086179
7252.92,5.343359253012251
7252.924,5.352783145838954
7252.928,5.359694801929967
7252.932,5.364298565900155
7252.936000000001,5.367423836480439
7252.9400000000005,5.371017897647767
7252.944,5.374155188499513
7252.948,5.373998924970499
7252.952,5.375405296731627
7252.956,5.376414999534488
7252.96,5.373890742527335
7252.964,5.3752129723882245
7252.968,5.377532884780512
7252.972,5.382990088024547
7252.976000000001,5.381343310834167
7252.9800000000005,5.372532451852058
7252.984,5.374611958815093
7252.988,5.382124628479238
7252.992,5.37774924966684
7252.996,5.37066930977535
7253.0,5.3832304934538
7253.004,5.401020495218495
7253.008,5.407547502622704
7253.012,5.4129205639665
7253.0160000000005,5.413281172110379
7253.02,5.407295076921988
7253.024,5.403761117111975
7253.028,5.4037851576549
7253.032,5.406189211947426
7253.036,5.406694063348857
7253.04,5.409386604156486
7253.044,5.410841057003465
7253.048,5.412103185507041
7253.052000000001,5.421863645934698
7253.0560000000005,5.433956039026105
7253.06,5.439088694940649
7253.064,5.441805276291205
7253.068,5.440627289687867
7253.072,5.440579208602017
7253.076,5.444882465785638
7253.08,5.44667348623357
7253.084,5.4481399593520115
7253.088,5.4495703716560655
7253.092000000001,5.450147344686272
7253.0960000000005,5.449534310841677
7253.1,5.44713025654915
7253.104,5.437057269063464
7253.108,5.408184577010223
7253.112,5.370813553032901
7253.116,5.328478156941512
7253.12,5.334788799459393
7253.124,5.424003254255046
7253.128,5.5357436977716725
7253.1320000000005,5.62739826767424
7253.136,5.731337555011616
7253.14,5.752312928713909
7253.144,5.6842060706066375
7253.148,5.615738604355486
7253.152,5.566828119774037
7253.156,5.539782508983116
7253.16,5.534120961124216
7253.164,5.546261435301475
7253.168000000001,5.534217123295918
7253.1720000000005,5.5132657901365505
7253.176,5.478407002894918
7253.18,5.428054085737953
7253.184,5.414507239799567
7253.188,5.42045727417357
7253.192,5.4256259909025015
7253.196,5.425926497689067
7253.2,5.419026861869517
7253.204,5.409927516372305
7253.2080000000005,5.414278854641777
7253.212,5.41246379365092
7253.216,5.4160939156326355
7253.22,5.41789695635203
7253.224,5.424243659684299
7253.228,5.42936429532738
7253.232,5.431888552334533
7253.236,5.442430330407261
7253.24,5.4458200469597235
7253.244000000001,5.439533444984767
7253.2480000000005,5.427813680308701
7253.252,5.408905793297982
7253.256,5.392462061937101
7253.26,5.386067277518982
7253.264,5.376150553562311
7253.268,5.367027167522172
7253.272,5.359802984373131
7253.276,5.352049909279733
7253.28,5.34902080087115
7253.284000000001,5.352975470182356
7253.2880000000005,5.359586619486803
7253.292,5.355343463660494
7253.296,5.3446694626016775
7253.3,5.328862805628316
7253.304,5.317215162581026
7253.308,5.309462087487629
7253.312,5.314089892000742
7253.316,5.3177200139824565
7253.32,5.313236452726895
7253.3240000000005,5.315700608376734
7253.328,5.318946081671645
7253.332,5.326566933778953
7253.336,5.335774461719329
7253.34,5.341940860979659
7253.344,5.33833477954087
7253.348,5.342325509666464
7253.352,5.364358667257468
7253.356,5.384312317885437
7253.360000000001,5.385574446389013
7253.3640000000005,5.375501458903328
7253.368,5.374539837186317
7253.372,5.411622374648536
7253.376,5.4430794250662435
7253.38,5.4458200469597235
7253.384,5.414699564142969
7253.388,5.3774968239661245
7253.392,5.351857584936331
7253.396,5.360992991247931
7253.400000000001,5.3801412836879035
7253.404,5.389649318414846
7253.408,5.39606814337589
7253.412,5.393447724197037
7253.416,5.384745047658091
7253.42,5.3782781416111956
7253.424,5.385778791003878
7253.428,5.392654386280504
7253.432,5.392942872795606
7253.436000000001,5.39168074429203
7253.4400000000005,5.390466696874304
7253.444,5.3825212974375045
7253.448,5.404386171228031
7253.452,5.412103185507041
7253.456,5.4103241853305715
7253.46,5.430770667088508
7253.464,5.403977481998302
7253.468,5.377003992836157
7253.472,5.363974018570664
7253.476000000001,5.358805301841732
7253.4800000000005,5.363673511784098
7253.484,5.360608342561127
7253.488,5.369623546158101
7253.492,5.364623113229646
7253.496,5.368938390684732
7253.5,5.377376621251498
7253.504,5.385418182859999
7253.508,5.387497689823034
7253.512,5.387990520953002
7253.5160000000005,5.387990520953002
7253.52,5.38802658176739
7253.524,5.390094068458962
7253.528,5.394265102656496
7253.532,5.395743596046399
7253.536,5.397450474594093
7253.54,5.394277122927958
7253.544,5.38985366302971
7253.548,5.386067277518982
7253.552000000001,5.377100155007858
7253.5560000000005,5.348720294084584
7253.56,5.3170949598664
7253.564,5.291816328980484
7253.568,5.307286418352892
7253.572,5.384660905757853
7253.576,5.476603962175523
7253.58,5.558738477079686
7253.584,5.636713978057779
7253.588,5.6145125366662985
7253.592000000001,5.547186996204098
7253.5960000000005,5.491232632545547
7253.6,5.452323013821007
7253.604,5.430626423830956
7253.608,5.420012524129453
7253.612,5.4233421393246015
7253.616,5.414483199256642
7253.62,5.399397758571039
7253.624,5.397558657037257
7253.628,5.371955478821851
7253.6320000000005,5.356461348906519
7253.636,5.353744767555964
7253.64,5.3524345579665376
7253.644,5.348167361597303
7253.648,5.343563597627115
7253.652,5.342926523239596
7253.656,5.33856316469866
7253.66,5.3312307991064545
7253.664,5.325208643103676
7253.668000000001,5.32422298084374
7253.6720000000005,5.324235001115203
7253.676,5.323465703741594
7253.68,5.320244270989609
7253.684,5.314871209645813
7253.688,5.309930878074671
7253.692,5.299413140544869
7253.696,5.2826448618544966
7253.7,5.264758697918101
7253.704,5.249961743747601
7253.7080000000005,5.236643282967005
7253.712,5.223733511416139
7253.716,5.213804767188005
7253.72,5.2058713880226675
7253.724,5.202421570112893
7253.728,5.198731346773864
7253.732,5.191459082538972
7253.736,5.183910352060439
7253.74,5.179859520577532
7253.744000000001,5.172851702314818
7253.7480000000005,5.1667814652261885
7253.752,5.165026505592644
7253.756,5.162934978358147
7253.76,5.160999714652663
7253.764,5.164557715005602
7253.768,5.172214627927298
7253.772,5.174798986291764
7253.776,5.173068067201145
7253.78,5.175928891809252
7253.784000000001,5.183285297944382
7253.7880000000005,5.19487283963436
7253.792,5.204705421690793
7253.796,5.206436340781412
7253.8,5.2082153409578815
7253.804,5.215679929536176
7253.808,5.2256086737643095
7253.812,5.233890640802062
7253.816,5.235140749034176
7253.82,5.23547731663513
7253.8240000000005,5.240934519879165
7253.828,5.247521628640687
7253.832,5.242929884941961
7253.836,5.242196648382741
7253.84,5.248687594972562
7253.844,5.24365110122972
7253.848,5.2428096822273345
7253.852,5.247028797510719
7253.856,5.25118781143679
7253.860000000001,5.254132777945134
7253.8640000000005,5.254709750975341
7253.868,5.248134662485281
7253.872,5.248158703028206
7253.876,5.251163770893864
7253.88,5.252161453425263
7253.884,5.2504064937917185
7253.888,5.2485193111720845
7253.892,5.254805913147041
7253.896,5.263244143713808
7253.900000000001,5.266898306238448
7253.904,5.2671146711247765
7253.908,5.2671507319391635
7253.912,5.265371731762694
7253.916,5.261140596207848
7253.92,5.259698163632333
7253.924,5.260900190778596
7253.928,5.254012575230508
7253.932,5.253651967086628
7253.936000000001,5.257690778298073
7253.9400000000005,5.254793892875579
7253.944,5.258015325627564
7253.948,5.269085995644648
7253.952,5.27919504394472
7253.956,5.2839190106295355
7253.96,5.283678605200282
7253.964,5.286274983836211
7253.968,5.293811694043282
7253.972,5.295843119920466
7253.976000000001,5.293463106170866
7253.9800000000005,5.28891944355799
7253.984,5.290734504548848
7253.988,5.295518572590975
7253.992,5.296143626707032
7253.996,5.290602281562759
7254.0,5.269362461888289
7254.004,5.238963195359293
7254.008,5.2057031042221915
7254.012,5.194175663889526
7254.0160000000005,5.24854335171501
7254.02,5.3585047950551665
7254.024,5.451950385405667
7254.028,5.540780191514514
7254.032,5.589402189580861
7254.036,5.531139933801484
7254.04,5.459414973983961
7254.044,5.4123796517506815
7254.048,5.379876837715726
7254.052000000001,5.361798349435928
7254.0560000000005,5.363036437396579
7254.06,5.375261053474075
7254.064,5.355379524474882
7254.068,5.346568665492773
7254.072,5.335582137375927
7254.076,5.314113932543667
7254.08,5.3079595535548
7254.084,5.309930878074671
7254.088,5.31211856748087
7254.092000000001,5.310243405132699
7254.0960000000005,5.297069187609655
7254.1,5.289183889530167
7254.104,5.29371553187158
7254.108,5.298571721542484
7254.112,5.298295255298844
7254.116,5.2978144444403386
7254.12,5.297946667426427
7254.124,5.296864842994791
7254.128,5.291191274864427
7254.1320000000005,5.294184322458624
7254.136,5.30047092443358
7254.14,5.301468606964979
7254.144,5.30161285022253
7254.148,5.297826464711801
7254.152,5.281262530636294
7254.156,5.261585346251966
7254.16,5.249372750445932
7254.164,5.239612290018275
7254.168000000001,5.226906863082273
7254.1720000000005,5.212218091354938
7254.176,5.198274576458285
7254.18,5.225284126434818
7254.184,5.25415681848806
7254.188,5.257414312054433
7254.192,5.236402877537753
7254.196,5.211280510180852
7254.2,5.202060961969013
7254.204,5.1947406166482715
7254.2080000000005,5.183417520930472
7254.212,5.186494710424904
7254.216,5.187191886169737
7254.22,5.187684717299706
7254.224,5.192012015026253
7254.228,5.196543657367666
7254.232,5.20304662422895
7254.236,5.2162448822949194
7254.24,5.221052990879972
7254.244000000001,5.223517146529812
7254.2480000000005,5.231522647323924
7254.252,5.236282674823126
7254.256,5.238326120971773
7254.26,5.244913229733295
7254.264,5.257438352597358
7254.268,5.254685710432415
7254.272,5.248663554429637
7254.276,5.247737993527013
7254.28,5.241391290194745
7254.284000000001,5.223937856031004
7254.2880000000005,5.23547731663513
7254.292,5.242929884941961
7254.296,5.247329304297285
7254.3,5.259361596031378
7254.304,5.260178974490838
7254.308,5.249529013974946
7254.312,5.247185061039733
7254.316,5.251043568179237
7254.32,5.252125392610874
7254.3240000000005,5.250827203292911
7254.328,5.253135095413736
7254.332,5.250430534334644
7254.336,5.238867033187592
7254.34,5.232929019085052
7254.344,5.244480499960641
7254.348,5.253171156228124
7254.352,5.26676608325236
7254.356,5.260840089421282
7254.360000000001,5.259145231145052
7254.3640000000005,5.254265000931223
7254.368,5.258964927073112
7254.372,5.260900190778596
7254.376,5.258159568885115
7254.38,5.2579792648131765
7254.384,5.2559237983930664
7254.388,5.253555804914928
7254.392,5.254589548260714
7254.396,5.264770718189562
7254.400000000001,5.272006921610067
7254.404,5.269242259173662
7254.408,5.268172455013487
7254.412,5.270336103876762
7254.416,5.276526543680017
7254.42,5.277115536981685
7254.424,5.270324083605299
7254.428,5.267427198182804
7254.432,5.2669223467813735
7254.436000000001,5.278173320870398
7254.4400000000005,5.283269915970553
7254.444,5.2856499297201545
7254.448,5.282404456425244
7254.452,5.256921480924465
7254.456,5.2293950592750384
7254.46,5.202625914727758
7254.464,5.200005495548904
7254.468,5.261224738108087
7254.472,5.353756787827427
7254.476000000001,5.428582977682309
7254.4800000000005,5.508481722094423
7254.484,5.534709954425886
7254.488,5.476976590590865
7254.492,5.417872915809104
7254.496,5.38030956748838
7254.5,5.3507396996903065
7254.504,5.3358946644339555
7254.508,5.33185585322251
7254.512,5.3421211650516
7254.5160000000005,5.332480907338567
7254.52,5.330725947705024
7254.524,5.310171283503924
7254.528,5.280901922492415
7254.532,5.281971726652588
7254.536,5.287813578583428
7254.54,5.2796758548032265
7254.544,5.282079909095753
7254.548,5.284820530989233
7254.552000000001,5.2754687597913055
7254.5560000000005,5.2743628948167425
7254.56,5.280962023849728
7254.564,5.284219517416101
7254.568,5.278666152000365
7254.572,5.271766516180815
7254.576,5.2704803471343125
7254.58,5.2725959149117365
7254.584,5.268689326686381
7254.588,5.264842839818338
7254.592000000001,5.260503521820329
7254.5960000000005,5.2689417523870965
7254.6,5.269001853744409
7254.604,5.269795191660943
7254.608,5.280180706204657
7254.612,5.262811413941154
7254.616,5.257798960741237
7254.62,5.2621863598250975
7254.624,5.262715251769452
7254.628,5.255479048348948
7254.6320000000005,5.251283973608491
7254.636,5.25329135894275
7254.64,5.247052838053644
7254.644,5.237809249298881
7254.648,5.2309937553795685
7254.652,5.224586950689986
7254.656,5.212061827825924
7254.66,5.197974069671719
7254.664,5.201712374096597
7254.668000000001,5.233361748857707
7254.6720000000005,5.255370865905785
7254.676,5.257606636397834
7254.68,5.2610444340361475
7254.684,5.267090630581851
7254.688,5.274050367758715
7254.692,5.287585193425637
7254.696,5.29402805892961
7254.7,5.285986497321108
7254.704,5.2854215445623645
7254.7080000000005,5.292417342553615
7254.712,5.304233269401383
7254.716,5.315604446205033
7254.72,5.316157378692314
7254.724,5.303932762614817
7254.728,5.286743774423254
7254.732,5.277115536981685
7254.736,5.278257462770636
7254.74,5.281442834708233
7254.744000000001,5.296840802451865
7254.7480000000005,5.317912338325859
7254.752,5.3231050955977155
7254.756,5.3193788114443
7254.76,5.317179101766637
7254.764,5.316722331451058
7254.768,5.31445050014462
7254.772,5.316794453079834
7254.776,5.311072803863621
7254.78,5.295819079377541
7254.784000000001,5.303908722071893
7254.7880000000005,5.32189104817999
7254.792,5.329668163816312
7254.796,5.31458272313071
7254.8,5.306541161522209
7254.804,5.302538411125153
7254.808,5.2971292889669686
7254.812,5.296828782180403
7254.816,5.301312343435964
7254.82,5.286912058223731
7254.8240000000005,5.273930165044089
7254.828,5.276490482865628
7254.832,5.293595329156955
7254.836,5.3047020599884265
7254.84,5.29476129548883
7254.844,5.303379830127537
7254.848,5.310219364589774
7254.852,5.312094526937945
7254.856,5.315592425933571
7254.860000000001,5.321386196778558
7254.8640000000005,5.321013568363218
7254.868,5.308548546856469
7254.872,5.2954344306907375
7254.876,5.2974898971108475
7254.88,5.31047179029049
7254.884,5.3131523108266565
7254.888,5.2934150250850145
7254.892,5.2686532658719925
7254.896,5.248062540856505
7254.900000000001,5.229274856560412
7254.904,5.229803748504768
7254.908,5.251151750622402
7254.912,5.294376646802026
7254.916,5.352158091722897
7254.92,5.404987184801163
7254.924,5.463129237865913
7254.928,5.496401349274479
7254.932,5.447262479535239
7254.936000000001,5.40880963112628
7254.9400000000005,5.387137081679155
7254.944,5.356341146191893
7254.948,5.341460050121154
7254.952,5.333166062811938
7254.956,5.335161427874734
7254.96,5.303716397728491
7254.964,5.2931625993843
7254.968,5.285313362119201
7254.972,5.280324949462209
7254.976000000001,5.2854576053767515
7254.9800000000005,5.2855537675484525
7254.984,5.271862678352516
7254.988,5.265876583164125
7254.992,5.262931616655781
7254.996,5.259746244718183
7255.0,5.262330603082649
7255.004,5.270348124148224
7255.008,5.266177089950691
7255.012,5.26192191385292
7255.0160000000005,5.259481798746005
7255.02,5.252125392610874
7255.024,5.252750446726931
7255.028,5.253868331972956
7255.032,5.262643130140677
7255.036,5.25511844020507
7255.04,5.2317149716673255
7255.044,5.210619395250408
7255.048,5.207902813899853
7255.052000000001,5.216593470167336
7255.0560000000005,5.211364652081091
7255.06,5.195149305878
7255.064,5.194211724703915
7255.068,5.193803035474184
7255.072,5.186194203638339
7255.076,5.187564514585079
7255.08,5.180448513879202
7255.084,5.168404201873644
7255.088,5.158968288775478
7255.092000000001,5.144832449535423
7255.0960000000005,5.146130638853388
7255.1,5.157345552128023
7255.104,5.1690653168040885
7255.108,5.178188702844227
7255.112,5.185076318392315
7255.116,5.186831278025859
7255.12,5.18245589921346
7255.124,5.165555397537
7255.128,5.164209127133186
7255.1320000000005,5.183177115501219
7255.136,5.2059314893799815
7255.14,5.219394193418128
7255.144,5.224659072318762
7255.148,5.221113092237285
7255.152,5.2141533550604215
7255.156,5.212182030540549
7255.16,5.215511645735698
7255.164,5.211689199410582
7255.168000000001,5.213900929359706
7255.1720000000005,5.219935105633947
7255.176,5.231258201351746
7255.18,5.23433539084618
7255.184,5.237701066855716
7255.188,5.234708019261522
7255.192,5.227700200998807
7255.196,5.222699768070352
7255.2,5.214345679403824
7255.204,5.210222726292141
7255.2080000000005,5.214706287547703
7255.212,5.217723375684823
7255.216,5.225800998107711
7255.22,5.218516713601356
7255.224,5.204993908205895
7255.228,5.204717441962255
7255.232,5.219622578575919
7255.236,5.231642850038551
7255.24,5.230777390493241
7255.244000000001,5.227748282084658
7255.2480000000005,5.215860233608114
7255.252,5.2025057120131315
7255.256,5.1986592251450885
7255.26,5.2116771791391185
7255.264,5.222952193771067
7255.268,5.217747416227748
7255.272,5.213420118501201
7255.276,5.208515847744447
7255.28,5.196988407411784
7255.284000000001,5.2021451038692526
7255.2880000000005,5.213227794157799
7255.292,5.221401578752388
7255.296,5.217194483740467
7255.3,5.21067949660772
7255.304,5.212242131897863
7255.308,5.220247632691975
7255.312,5.224418666889509
7255.316,5.226930903625198
7255.32,5.22958738361844
7255.3240000000005,5.223901795216615
7255.328,5.225380288606519
7255.332,5.233133363699917
7255.336,5.225728876478935
7255.34,5.194295866604154
7255.344,5.164124985232947
7255.348,5.137247658242503
7255.352,5.139255043576762
7255.356,5.195533954564805
7255.360000000001,5.286274983836211
7255.3640000000005,5.360091470888234
7255.368,5.433799775497091
7255.372,5.445411357729994
7255.376,5.386271622133846
7255.38,5.335065265703034
7255.384,5.287368828539311
7255.388,5.253555804914928
7255.392,5.24456464186088
7255.396,5.2581114877992645
7255.400000000001,5.262799393669692
7255.404,5.250851243835836
7255.408,5.2486154733437855
7255.412,5.224178261460255
7255.416,5.205679063679266
7255.42,5.203791881059632
7255.424,5.199741049576726
7255.428,5.193538589502007
7255.432,5.189463717476175
7255.436000000001,5.190076751320769
7255.4400000000005,5.194524251761943
7255.444,5.202565813370444
7255.448,5.21058333443602
7255.452,5.205450678521476
7255.456,5.199224177903833
7255.46,5.184811872420136
7255.464,5.169594208748445
7255.468,5.165363073193599
7255.472,5.176481824296533
7255.476000000001,5.192120197469416
7255.4800000000005,5.184811872420136
7255.484,5.178849817774671
7255.488,5.176037074252416
7255.492,5.176962635155038
7255.496,5.1788858785890595
7255.5,5.162285883699165
7255.504,5.1643653906622005
7255.508,5.165675600251626
7255.512,5.15819899140187
7255.5160000000005,5.149820862192416
7255.52,5.146082557767538
7255.524,5.155446349236928
7255.528,5.158090808958706
7255.532,5.14203172628463
7255.536,5.126164967953955
7255.54,5.118411892860559
7255.544,5.122751210858569
7255.548,5.1252754678657215
7255.552000000001,5.134759462049737
7255.5560000000005,5.148690956674929
7255.56,5.141238388368095
7255.564,5.135348455351407
7255.568,5.1348075431355875
7255.572,5.147308625456726
7255.576,5.161180018724603
7255.58,5.175916871537789
7255.584,5.178080520401062
7255.588,5.1811697301669595
7255.592000000001,5.184908034591837
7255.5960000000005,5.184980156220614
7255.6,5.182876608714653
7255.604,5.187877041643108
7255.608,5.194392028775855
7255.612,5.204056327031811
7255.616,5.203106725586263
7255.62,5.197096589854947
7255.624,5.209417368104145
7255.628,5.212710922484906
7255.6320000000005,5.213059510357321
7255.636,5.205414617707088
7255.64,5.2156078079074
7255.644,5.2224473423696365
7255.648,5.216605490438798
7255.652,5.206183915080697
7255.656,5.194993042348987
7255.66,5.189932508063218
7255.664,5.1945122314904815
7255.668000000001,5.194343947690005
7255.6720000000005,5.187877041643108
7255.676,5.178909919131985
7255.68,5.178669513702732
7255.684,5.186254304995653
7255.688,5.182311655955909
7255.692,5.186218244181264
7255.696,5.195149305878
7255.7,5.199536704961861
7255.704,5.2006786307508115
7255.7080000000005,5.207794631456689
7255.712,5.207746550370838
7255.716,5.2004502455930215
7255.72,5.195533954564805
7255.724,5.19601476542331
7255.728,5.192156258283805
7255.732,5.206989273268693
7255.736,5.216665591796111
7255.74,5.216641551253185
7255.744000000001,5.207962915257166
7255.7480000000005,5.203479354001605
7255.752,5.192829393485711
7255.756,5.193502528687619
7255.76,5.184896014320375
7255.764,5.176842432440412
7255.768,5.184078635860916
7255.772,5.201327725409794
7255.776,5.216124679580293
7255.78,5.207998976071553
7255.784000000001,5.179462851619266
7255.7880000000005,5.154172200461889
7255.792,5.1358172459384495
7255.796,5.153919774761174
7255.8,5.206784928653828
7255.804,5.277067455895835
7255.808,5.346208057348894
7255.812,5.424892754343281
7255.816,5.436840904177137
7255.82,5.379468148485996
7255.8240000000005,5.331182718020604
7255.828,5.2895324774025845
7255.832,5.258243710785354
7255.836,5.253411561657376
7255.84,5.25872452164386
7255.844,5.249601135603722
7255.848,5.212602740041742
7255.852,5.200281961792545
7255.856,5.205919469108518
7255.860000000001,5.203755820245245
7255.8640000000005,5.198635184602163
7255.868,5.200642569936424
7255.872,5.189595940462263
7255.876,5.18217943296982
7255.88,5.181097608538184
7255.884,5.190064731049307
7255.888,5.187276028069976
7255.892,5.184114696675303
7255.896,5.178549310988105
7255.900000000001,5.174883128192003
7255.904,5.180905284194781
7255.908,5.184018534503603
7255.912,5.175652425565611
7255.916,5.176133236424117
7255.92,5.1677911680290505
7255.924,5.167670965314424
7255.928,5.166072269209894
7255.932,5.164966404235332
7255.936000000001,5.153354822002429
7255.9400000000005,5.144507902205932
7255.944,5.140589293709113
7255.948,5.140961922124455
7255.952,5.137656347472231
7255.956,5.13710341498495
7255.96,5.129602765592268
7255.964,5.107233040400311
7255.968,5.091041734740147
7255.972,5.089971930579972
7255.976000000001,5.099227539606198
7255.9800000000005,5.088156869589114
7255.984,5.0787810578482615
7255.988,5.091065775283072
7255.992,5.103975546833937
7255.996,5.100249262680522
7256.0,5.102809580502062
7256.004,5.107088797142759
7256.008,5.103362512989344
7256.012,5.11106750699689
7256.0160000000005,5.132090961785034
7256.02,5.141647077597825
7256.024,5.1347714823212005
7256.028,5.126020724696404
7256.032,5.1306605494809805
7256.036,5.144339618405454
7256.04,5.168043593729766
7256.044,5.165459235365299
7256.048,5.155386247879614
7256.052000000001,5.146791753783833
7256.0560000000005,5.149027524275882
7256.06,5.166949749026666
7256.064,5.1832251965870695
7256.068,5.191471102810434
7256.072,5.187420271327527
7256.076,5.1755562633939105
7256.08,5.17898204076076
7256.084,5.175387979593434
7256.088,5.1631273027015485
7256.092000000001,5.164437512290976
7256.0960000000005,5.1793787097190265
7256.1,5.172599276614103
7256.104,5.161456484968244
7256.108,5.160651126780246
7256.112,5.160218397007592
7256.116,5.14952035540585
7256.12,5.156732518283429
7256.124,5.164473573105363
7256.128,5.173524837516726
7256.1320000000005,5.167069951741293
7256.136,5.163307606773489
7256.14,5.17144533055369
7256.144,5.169005215446775
7256.148,5.169534107391131
7256.152,5.160002032121265
7256.156,5.154280382905052
7256.16,5.163740336546144
7256.164,5.163523971659815
7256.168000000001,5.155013619464272
7256.1720000000005,5.160639106508785
7256.176,5.166625201697175
7256.18,5.1793426489046395
7256.184,5.181770743740091
7256.188,5.183994493960678
7256.192,5.184030554775065
7256.196,5.176505864839458
7256.2,5.177888196057661
7256.204,5.184415203461869
7256.2080000000005,5.177118898684052
7256.212,5.167923391015139
7256.216,5.173969587560842
7256.22,5.186963501011947
7256.224,5.166529039525473
7256.228,5.131742373912617
7256.232,5.100273303223447
7256.236,5.097424498886803
7256.24,5.1556867546661795
7256.244000000001,5.242328871368829
7256.2480000000005,5.314162013629518
7256.252,5.390839325289646
7256.256,5.445122871214891
7256.26,5.401393123633837
7256.264,5.340282063517816
7256.268,5.2927298696116445
7256.272,5.258760582458247
7256.276,5.247786074612865
7256.28,5.235453276092205
7256.284000000001,5.236835607310407
7256.2880000000005,5.225079781819953
7256.292,5.217494990527033
7256.296,5.196856184425694
7256.3,5.177948297414973
7256.304,5.1633556878593385
7256.308,5.157393633213873
7256.312,5.156383930411012
7256.316,5.1553261465223015
7256.32,5.155121801907437
7256.3240000000005,5.159064450947179
7256.328,5.169269661418954
7256.332,5.165627519165776
7256.336,5.1503978352226225
7256.34,5.137187556885189
7256.344,5.144483861663007
7256.348,5.15436452480529
7256.352,5.153066335487327
7256.356,5.14700811867016
7256.360000000001,5.148594794503228
7256.3640000000005,5.1407455572381275
7256.368,5.138810293532644
7256.372,5.145012753607363
7256.376,5.137620286657844
7256.38,5.133425211917385
7256.384,5.1321630834138094
7256.388,5.125648096281062
7256.392,5.1097813379503885
7256.396,5.101799877699201
7256.400000000001,5.089899808951196
7256.404,5.0808365242683715
7256.408,5.088950207505648
7256.412,5.092099518628858
7256.416,5.079898943094287
7256.42,5.060510245225061
7256.424,5.054704454108611
7256.428,5.0720256652862625
7256.432,5.081533700013204
7256.436000000001,5.082819869059706
7256.4400000000005,5.090801329310893
7256.444,5.094094883691654
7256.448,5.096054187940064
7256.452,5.0955493365386335
7256.456,5.091799011842292
7256.46,5.09233992405811
7256.464,5.0996963301932405
7256.468,5.111969027356587
7256.472,5.126525576097835
7256.476000000001,5.130636508938055
7256.4800000000005,5.1332689483883716
7256.484,5.144471841391543
7256.488,5.147729334957917
7256.492,5.146395084825565
7256.496,5.140625354523502
7256.5,5.148931362104181
7256.504,5.1628027553720575
7256.508,5.165266911021898
7256.512,5.161119917367289
7256.5160000000005,5.165074586678495
7256.52,5.160771329494873
7256.524,5.163151343244474
7256.528,5.1685724856741215
7256.532,5.166985809841053
7256.536,5.150602179837486
7256.54,5.143101530444803
7256.544,5.150493997394324
7256.548,5.160122234835891
7256.552000000001,5.154172200461889
7256.5560000000005,5.1435222399459954
7256.56,5.15134743666817
7256.564,5.165399134007986
7256.568,5.167166113912994
7256.572,5.16568762052309
7256.576,5.162021437726986
7256.58,5.165940046223805
7256.584,5.173164229372846
7256.588,5.176061114795341
7256.592000000001,5.161564667411407
7256.5960000000005,5.152321078656644
7256.6,5.155386247879614
7256.604,5.171529472453929
7256.608,5.169726431734534
7256.612,5.1566964574690415
7256.616,5.159929910492489
7256.62,5.168668647845823
7256.624,5.178621432616881
7256.628,5.166721363868876
7256.6320000000005,5.157585957557275
7256.636,5.1119329665422
7256.64,5.102677357515973
7256.644,5.1600260726641896
7256.648,5.215788111979339
7256.652,5.2316789108529385
7256.656,5.213059510357321
7256.66,5.187804920014332
7256.664,5.165206809664584
7256.668000000001,5.151203193410618
7256.6720000000005,5.136334117611342
7256.676,5.145337300936855
7256.68,5.147440848442815
7256.684,5.176782331083099
7256.688,5.244083831002373
7256.692,5.31074825653413
7256.696,5.367784444624318
7256.7,5.415456841245115
7256.704,5.3877741560666745
7256.7080000000005,5.314775047474111
7256.712,5.278894537158155
7256.716,5.259097150059201
7256.72,5.270420245777
7256.724,5.276466442322703
7256.728,5.266970427867224
7256.732,5.230753349950316
7256.736,5.240345526577496
7256.74,5.233181444785767
7256.744000000001,5.2020489416975515
7256.7480000000005,5.1945122314904815
7256.752,5.1936347516737085
7256.756,5.203984205403035
7256.76,5.1899805891490685
7256.764,5.17309210774407
7256.768,5.159028390132792
7256.772,5.15312643684464
7256.776,5.163235485144713
7256.78,5.174546560591049
7256.784000000001,5.166120350295745
7256.7880000000005,5.171108762952736
7256.792,5.187420271327527
7256.796,5.186891379383171
7256.8,5.178308905558853
7256.804,5.182648223556863
7256.808,5.1781045609439875
7256.812,5.161600728225794
7256.816,5.154424626162604
7256.82,5.16979855336331
7256.8240000000005,5.1702072425930385
7256.828,5.15271774761491
7256.832,5.138040996159035
7256.836,5.141022023481768
7256.84,5.146334983468253
7256.844,5.12746315727192
7256.848,5.113171054502851
7256.852,5.105478080766766
7256.856,5.088060707417414
7256.860000000001,5.087014943800165
7256.8640000000005,5.099528046392764
7256.868,5.107341222843474
7256.872,5.123063737916596
7256.876,5.123183940631223
7256.88,5.109564973064061
7256.884,5.106920513342283
7256.888,5.123568589318027
7256.892,5.131874596898705
7256.896,5.1271025491280415
7256.900000000001,5.125491832752048
7256.904,5.1169574400135795
7256.908,5.116536730512388
7256.912,5.134158448476605
7256.916,5.151311375853782
7256.92,5.1529461327727
7256.924,5.155434328965464
7256.928,5.1633196270449515
7256.932,5.162297903970627
7256.936000000001,5.15025359196507
7256.9400000000005,5.161107897095827
7256.944,5.165122667764346
7256.948,5.158944248232553
7256.952,5.168259958616092
7256.956,5.193995359817587
7256.96,5.201580151110509
7256.964,5.185545108979357
7256.968,5.1633196270449515
7256.972,5.158956268504016
7256.976000000001,5.175844749909013
7256.9800000000005,5.1796671962341305
7256.984,5.1740537294610816
7256.988,5.166024188124044
7256.992,5.166432877353772
7256.996,5.1682479383446305
7257.0,5.177984358229362
7257.004,5.185989859023474
7257.008,5.182708324914175
7257.012,5.184571466990884
7257.0160000000005,5.175339898507583
7257.02,5.175075452535404
7257.024,5.189043007974982
7257.028,5.1868793591117095
7257.032,5.174678783577138
7257.036,5.1648221609777805
7257.04,5.175339898507583
7257.044,5.1871077442694995
7257.048,5.189559879647876
7257.052000000001,5.185977838752012
7257.0560000000005,5.189583920190802
7257.06,5.189403616118862
7257.064,5.193009697557652
7257.068,5.190617663536587
7257.072,5.188682399831104
7257.076,5.200979137537377
7257.08,5.2063882596955615
7257.084,5.210607374978945
7257.088,5.218588835230132
7257.092000000001,5.210054442491663
7257.0960000000005,5.199464583333086
7257.1,5.196411434381577
7257.104,5.202782178256772
7257.108,5.21537942274961
7257.112,5.215487605192773
7257.116,5.193129900272277
7257.12,5.166589140882787
7257.124,5.139122820590673
7257.128,5.144243456233753
7257.1320000000005,5.199512664418935
7257.136,5.280300908919283
7257.14,5.357627315238394
7257.144,5.438932431411636
7257.148,5.44210578307777
7257.152,5.374215289856826
7257.156,5.322179534695093
7257.16,5.28727266636761
7257.164,5.267992150941549
7257.168000000001,5.259986650147435
7257.1720000000005,5.265395772305619
7257.176,5.247401425926061
7257.18,5.224118160102943
7257.184,5.197493258813214
7257.188,5.1719381616836575
7257.192,5.18473975079136
7257.196,5.209934239777038
7257.2,5.203575516173306
7257.204,5.191350900095808
7257.2080000000005,5.184018534503603
7257.212,5.1768304121689495
7257.216,5.169510066848206
7257.22,5.1586918225318374
7257.224,5.1611319376387526
7257.228,5.172995945572369
7257.232,5.176662128368473
7257.236,5.172022303583897
7257.24,5.170820276437634
7257.244000000001,5.169125418161403
7257.2480000000005,5.161047795738513
7257.252,5.152417240828345
7257.256,5.147308625456726
7257.26,5.152248957027868
7257.264,5.145373361751242
7257.268,5.130408123780265
7257.272,5.108831736504841
7257.276,5.098890972005244
7257.28,5.118123406345455
7257.284000000001,5.126189008496881
7257.2880000000005,5.122426663529078
7257.292,5.108254763474634
7257.296,5.086065342354617
7257.3,5.066941090457569
7257.304,5.0735281992190915
7257.308,5.092279822700797
7257.312,5.096018127125675
7257.316,5.101174823583144
7257.32,5.1035788778756705
7257.3240000000005,5.075475483196038
7257.328,5.061832475085951
7257.332,5.0595005424222
7257.336,5.05214413628707
7257.34,5.061832475085951
7257.344,5.068359482490161
7257.348,5.083769470505254
7257.352,5.095393073009618
7257.356,5.101415229012398
7257.360000000001,5.106499803841091
7257.3640000000005,5.116801176484565
7257.368,5.123111819002447
7257.372,5.123400305517551
7257.376,5.126032744967867
7257.38,5.131273583325574
7257.384,5.136694725755222
7257.388,5.1381491786022
7257.392,5.1399642395930565
7257.396,5.13997625986452
7257.400000000001,5.143185672345043
7257.404,5.143834767004025
7257.408,5.144772348178109
7257.412,5.144447800848618
7257.416,5.149688639206327
7257.42,5.150049247350205
7257.424,5.147897618758394
7257.428,5.14540942256563
7257.432,5.137199577156652
7257.436000000001,5.133461272731773
7257.4400000000005,5.13362955653225
7257.444,5.132691975358165
7257.448,5.127439116728994
7257.452,5.127379015371682
7257.456,5.136454320325968
7257.46,5.143341935874056
7257.464,5.14486851034981
7257.468,5.146635490254819
7257.472,5.142584658771911
7257.476000000001,5.136814928469847
7257.4800000000005,5.1347113809638865
7257.484,5.133689657889564
7257.488,5.133918043047354
7257.492,5.13449501607756
7257.496,5.134903705307289
7257.5,5.141406672168573
7257.504,5.150229551422145
7257.508,5.166673282783026
7257.512,5.178825777231745
7257.5160000000005,5.181157709895496
7257.52,5.189259372861311
7257.524,5.198214475100972
7257.528,5.203106725586263
7257.532,5.202024901154626
7257.536,5.19984923201989
7257.54,5.192444744798907
7257.544,5.186410568524666
7257.548,5.187636636213854
7257.552000000001,5.1849921764920754
7257.5560000000005,5.179426790804877
7257.56,5.151263294767932
7257.564,5.119205230777092
7257.568,5.085043619280293
7257.572,5.087880403345474
7257.576,5.166180451653057
7257.58,5.282524659139869
7257.584,5.382028466307537
7257.588,5.481267827503024
7257.592000000001,5.508325458565409
7257.5960000000005,5.440987897831746
7257.6,5.3795522903862345
7257.604,5.324896116045648
7257.608,5.296985045709417
7257.612,5.297333633581833
7257.616,5.299389100001943
7257.62,5.268881651029783
7257.624,5.24027340494872
7257.628,5.205366536621237
7257.6320000000005,5.173837364574754
7257.636,5.160230417279055
7257.64,5.153390882816818
7257.644,5.148751058032241
7257.648,5.148751058032241
7257.652,5.147705294414992
7257.656,5.142945266915789
7257.66,5.142885165558477
7257.664,5.139459388191626
7257.668000000001,5.136790887926922
7257.6720000000005,5.134098347119292
7257.676,5.133641576803713
7257.68,5.131081258982172
7257.684,5.128136292473828
7257.688,5.1213328188259775
7257.692,5.113110953145538
7257.696,5.112485899029481
7257.7,5.118856642904675
7257.704,5.12020291330849
7257.7080000000005,5.112798426087509
7257.712,5.08845737637568
7257.716,5.071881422028711
7257.72,5.065690982225456
7257.724,5.055822339354635
7257.728,5.0466388519571845
7257.732,5.0382847632906556
7257.736,5.026264491828024
7257.74,5.0168526192727825
7257.744000000001,5.004231334237019
7257.7480000000005,5.004880428896001
7257.752,5.008943280650371
7257.756,4.996862907830425
7257.76,4.972882466262475
7257.764,4.962196444932196
7257.768,4.9708149795709025
7257.772,4.979770081810563
7257.776,4.98364060922153
7257.78,4.982402521260879
7257.784000000001,4.98701830550253
7257.7880000000005,4.996538360500934
7257.792,5.0103256118685735
7257.796,5.022946896904337
7257.8,5.033116046561723
7257.804,5.045016115309728
7257.808,5.053670710762824
7257.812,5.061712272371325
7257.816,5.0696456515366615
7257.82,5.078119942917818
7257.8240000000005,5.0890944507632
7257.828,5.095248829752068
7257.832,5.096955708299761
7257.836,5.100333404580761
7257.84,5.103819283304924
7257.844,5.10549010103823
7257.848,5.107160918771535
7257.852,5.107449405286639
7257.856,5.1089278986765425
7257.860000000001,5.110250128537432
7257.8640000000005,5.113134993688464
7257.868,5.112918628802135
7257.872,5.106103134882823
7257.876,5.104179891448802
7257.88,5.103098067017165
7257.884,5.108447087818037
7257.888,5.107233040400311
7257.892,5.094371349935296
7257.896,5.095248829752068
7257.900000000001,5.105886769996496
7257.904,5.112173371971452
7257.908,5.112654182829958
7257.912,5.116440568340687
7257.916,5.1120291287139015
7257.92,5.100309364037836
7257.924,5.096486917712718
7257.928,5.098109654360174
7257.932,5.0978692489309205
7257.936000000001,5.100706032996102
7257.9400000000005,5.104276053620503
7257.944,5.109348608177735
7257.948,5.121008271496486
7257.952,5.125948603067628
7257.956,5.130287921065639
7257.96,5.135889367567224
7257.964,5.139687773349416
7257.968,5.14226011144242
7257.972,5.142404354699972
7257.976000000001,5.14180334112684
7257.9800000000005,5.145818111795359
7257.984,5.140877780224217
7257.988,5.1397358544352665
7257.992,5.142296172256807
7257.996,5.142981327730178
7258.0,5.129338319620091
7258.004,5.102617256158661
7258.008,5.075138915595085
7258.012,5.043826108434928
7258.0160000000005,5.06379177933436
7258.02,5.167803188300512
7258.024,5.274507138074295
7258.028,5.363505227983622
7258.032,5.4458200469597235
7258.036,5.420877983674762
7258.04,5.341159543334588
7258.044,5.288114085369994
7258.048,5.25037043297733
7258.052000000001,5.236871668124794
7258.0560000000005,5.238109756085446
7258.06,5.251031547907775
7258.064,5.223901795216615
7258.068,5.204164509474974
7258.072,5.186662994225381
7258.076,5.156756558826355
7258.08,5.147669233600604
7258.084,5.147248524099412
7258.088,5.146815794326758
7258.092000000001,5.142668800672149
7258.0960000000005,5.141430712711498
7258.1,5.139255043576762
7258.104,5.135047948564841
7258.108,5.1363701784257305
7258.112,5.139675753077954
7258.116,5.142524557414597
7258.12,5.14299334800164
7258.124,5.140613334252039
7258.128,5.138533827289003
7258.1320000000005,5.1370553338991
7258.136,5.135865327024299
7258.14,5.132824198344253
7258.144,5.129230137176927
7258.148,5.123917177190443
7258.152,5.118171487431305
7258.156,5.112594081472644
7258.16,5.108711533790214
7258.164,5.1050453509941125
7258.168000000001,5.099323701777899
7258.1720000000005,5.0936260931046125
7258.176,5.090705167139192
7258.18,5.082735727159467
7258.184,5.07160495578507
7258.188,5.062553691373709
7258.192,5.057156589486987
7258.196,5.0548366770947
7258.2,5.053598589134048
7258.204,5.0528052512175154
7258.2080000000005,5.054343845964731
7258.212,5.054980920352252
7258.216,5.0564594137421555
7258.22,5.0626618738168725
7258.224,5.06808301624652
7258.228,5.0709198003117
7258.232,5.0771463009293445
7258.236,5.084442605707161
7258.24,5.089358896735377
7258.244000000001,5.098073593545785
7258.2480000000005,5.105922830810885
7258.252,5.113519642375267
7258.256,5.120767866067235
7258.26,5.1265856774551475
7258.264,5.131309644139963
7258.268,5.136478360868893
7258.272,5.142861125015552
7258.276,5.148402470159825
7258.28,5.151876328612525
7258.284000000001,5.152345119199569
7258.2880000000005,5.155109781635973
7258.292,5.158271113030645
7258.296,5.159581322620073
7258.3,5.1602905186363675
7258.304,5.16299507971546
7258.308,5.164124985232947
7258.312,5.161408403882393
7258.316,5.160038092935653
7258.32,5.1586076806316
7258.3240000000005,5.156335849325162
7258.328,5.156468072311251
7258.332,5.157201308870472
7258.336,5.152886031415386
7258.34,5.1502055108792195
7258.344,5.1594370793625215
7258.348,5.1669737895695915
7258.352,5.17208240494121
7258.356,5.169774512820385
7258.360000000001,5.166408836810847
7258.3640000000005,5.161240120081916
7258.368,5.159990011849802
7258.372,5.16527893129336
7258.376,5.170772195351783
7258.38,5.16979855336331
7258.384,5.169906735806473
7258.388,5.171637654897092
7258.392,5.175424040407821
7258.396,5.18496813594915
7258.400000000001,5.194199704432451
7258.404,5.1989477116601925
7258.408,5.200979137537377
7258.412,5.202289347126803
7258.416,5.2040082459459605
7258.42,5.206111793451921
7258.424,5.206953212454305
7258.428,5.206917151639917
7258.432,5.20692917191138
7258.436000000001,5.2079869558000915
7258.4400000000005,5.207313820598184
7258.444,5.204224610832288
7258.448,5.184030554775065
7258.452,5.160302538907831
7258.456,5.13317278621667
7258.46,5.116741075127253
7258.464,5.162478208042566
7258.468,5.254637629346565
7258.472,5.331050495034515
7258.476000000001,5.416226138618724
7258.4800000000005,5.461867109362338
7258.484,5.413858145140585
7258.488,5.350294949646189
7258.492,5.3085846076708565
7258.496,5.281526976608472
7258.5,5.2721391445961565
7258.504,5.2739662258584765
7258.508,5.2782454424991725
7258.512,5.251031547907775
7258.5160000000005,5.235681661249995
7258.52,5.219478335318367
7258.524,5.197913968314406
7258.528,5.188261690329912
7258.532,5.18268428437125
7258.536,5.182287615412983
7258.54,5.1828044870858765
7258.544,5.179943662477771
7258.548,5.177431425742081
7258.552000000001,5.174089790275469
7258.5560000000005,5.17185401978342
7258.56,5.170555830465456
7258.564,5.1706279520942315
7258.568,5.171553512996854
7258.572,5.16898117490385
7258.576,5.1666492422401005
7258.58,5.163740336546144
7258.584,5.162430126956716
7258.588,5.157814342715065
7258.592000000001,5.15038581495116
7258.5960000000005,5.146851855141145
7258.6,5.145072854964676
7258.604,5.14020464502231
7258.608,5.136802908198384
7258.612,5.1291940763625385
7258.616,5.117919061730591
7258.62,5.109384668992122
7258.624,5.103771202219073
7258.628,5.098362080060888
7258.6320000000005,5.094455491835533
7258.636,5.09005607248021
7258.64,5.085440288238559
7258.644,5.0830242136745705
7258.648,5.07840842943292
7258.652,5.073420016775928
7258.656,5.074706185822429
7258.66,5.079358030878468
7258.664,5.080788443182521
7258.668000000001,5.085031599008831
7258.6720000000005,5.0890944507632
7258.676,5.091462444241338
7258.68,5.0975447016014295
7258.684,5.102629276430123
7258.688,5.113471561289416
7258.692,5.124614352935276
7258.696,5.133749759246876
7258.7,5.138209279959512
7258.704,5.145024773878824
7258.7080000000005,5.152200875942017
7258.712,5.157213329141934
7258.716,5.164437512290976
7258.72,5.168812891103373
7258.724,5.170952499423723
7258.728,5.171637654897092
7258.732,5.174378276790573
7258.736,5.183056912786592
7258.74,5.186675014496845
7258.744000000001,5.184703689976973
7258.7480000000005,5.182564081656624
7258.752,5.1812658923386605
7258.756,5.17984750030607
7258.76,5.179522952976578
7258.764,5.176842432440412
7258.768,5.183237216858531
7258.772,5.185172480564016
7258.776,5.172731499600192
7258.78,5.169365823590654
7258.784000000001,5.179330628633176
7258.7880000000005,5.184811872420136
7258.792,5.186218244181264
7258.796,5.18510035893524
7258.8,5.182035189712268
7258.804,5.17646980402507
7258.808,5.177215060855754
7258.812,5.181927007269104
7258.816,5.180664878765529
7258.82,5.178417088002017
7258.8240000000005,5.183309338487307
7258.828,5.1902089743068585
7258.832,5.20058246857911
7258.836,5.210366969549693
7258.84,5.212362334612489
7258.844,5.210342929006767
7258.848,5.208912516702714
7258.852,5.21245849678419
7258.856,5.214225476689197
7258.860000000001,5.215824172793727
7258.8640000000005,5.214862551076716
7258.868,5.213203753614874
7258.872,5.209477469461457
7258.876,5.207241698969408
7258.88,5.205859367751206
7258.884,5.196098907323549
7258.888,5.169233600604565
7258.892,5.1419836451987795
7258.896,5.115599149338302
7258.900000000001,5.121693426969857
7258.904,5.201135401066391
7258.908,5.3081638981696635
7258.912,5.387894358781301
7258.916,5.4797893341131205
7258.92,5.497591356149279
7258.924,5.445507519901695
7258.928,5.396585015048784
7258.932,5.350210807745951
7258.936000000001,5.320809223748353
7258.9400000000005,5.310784317348518
7258.944,5.311950283680393
7258.948,5.298066870141054
7258.952,5.266177089950691
7258.956,5.24387948638751
7258.96,5.212362334612489
7258.964,5.198514981887538
7258.968,5.193286163801292
7258.972,5.188838663360118
7258.976000000001,5.187600575399467
7258.9800000000005,5.183754088531425
7258.984,5.182107311341044
7258.988,5.1813981153247495
7258.992,5.179462851619266
7258.996,5.178813756960284
7259.0,5.175123533621255
7259.004,5.170050979064025
7259.008,5.166589140882787
7259.012,5.1649543839638685
7259.0160000000005,5.161997397184061
7259.02,5.1576099981002015
7259.024,5.1552299843506
7259.028,5.148799139118092
7259.032,5.14536134147978
7259.036,5.139471408463089
7259.04,5.128893569575973
7259.044,5.119878365978999
7259.048,5.110670838038623
7259.052000000001,5.101174823583144
7259.0560000000005,5.090356579266776
7259.06,5.078011760474653
7259.064,5.069753833979825
7259.068,5.064404813178954
7259.072,5.054788596008849
7259.076,5.047708656117359
7259.08,5.040893162198046
7259.084,5.032082303215937
7259.088,5.028343998791059
7259.092000000001,5.027406417616973
7259.0960000000005,5.026504897257276
7259.1,5.03021916113923
7259.104,5.035375857596698
7259.108,5.043453480019586
7259.112,5.0511103929412835
7259.116,5.064789461865758
7259.12,5.07356426003348
7259.124,5.082158754129262
7259.128,5.095381052738157
7259.1320000000005,5.107485466101026
7259.136,5.119445636206345
7259.14,5.12878538713281
7259.144,5.140180604479385
7259.148,5.150133389250444
7259.152,5.157994646787005
7259.156,5.160915572752425
7259.16,5.165675600251626
7259.164,5.172142506298522
7259.168000000001,5.173380594259174
7259.1720000000005,5.173933526746455
7259.176,5.179282547547325
7259.18,5.182443878941998
7259.184,5.183862270974588
7259.188,5.185196521106941
7259.192,5.185521068436432
7259.196,5.185965818480549
7259.2,5.181554378853763
7259.204,5.178645473159807
7259.2080000000005,5.178092540672526
7259.212,5.180280230078724
7259.216,5.175520202579522
7259.22,5.172779580686043
7259.224,5.183838230431663
7259.228,5.19555799510773
7259.232,5.200606509122036
7259.236,5.199981455005979
7259.24,5.198527002159
7259.244000000001,5.193754954388334
7259.2480000000005,5.194920920720211
7259.252,5.199524684690399
7259.256,5.198959731931654
7259.26,5.200462265864483
7259.264,5.202589853913369
7259.268,5.203443293187216
7259.272,5.2081191787861805
7259.276,5.217422868898257
7259.28,5.228745964616056
7259.284000000001,5.234984485505162
7259.2880000000005,5.235008526048087
7259.292,5.231474566238074
7259.296,5.232123660897056
7259.3,5.232496289312397
7259.304,5.232953059627977
7259.308,5.234395492203492
7259.312,5.234912363876386
7259.316,5.233337708314782
7259.32,5.2340589246025395
7259.3240000000005,5.2261015048942765
7259.328,5.207181597612095
7259.332,5.179967703020696
7259.336,5.135528759423345
7259.34,5.129807110207134
7259.344,5.211520915610105
7259.348,5.324811974145409
7259.352,5.425121139501071
7259.356,5.5357797585860595
7259.360000000001,5.561491119244629
7259.3640000000005,5.500872890258577
7259.368,5.448692891839293
7259.372,5.409987617729618
7259.376,5.392438021394176
7259.38,5.384636865214928
7259.384,5.378242080796808
7259.388,5.338911752571076
7259.392,5.306372877721732
7259.396,5.2728603608839135
7259.400000000001,5.2393117832317095
7259.404,5.221762186896267
7259.408,5.217783477042136
7259.412,5.214321638860898
7259.416,5.210415050635543
7259.42,5.211064145294525
7259.424,5.209802016790948
7259.428,5.208491807201522
7259.432,5.206857050282604
7259.436000000001,5.203262989115276
7259.4400000000005,5.203178847215039
7259.444,5.203190867486501
7259.448,5.204344813546913
7259.452,5.204176529746437
7259.456,5.203827941874021
7259.46,5.202661975542145
7259.464,5.1968321438827685
7259.468,5.18971614317689
7259.472,5.18350166283071
7259.476000000001,5.179991743563622
7259.4800000000005,5.170676033180082
7259.484,5.160398701079531
7259.488,5.151840267798138
7259.492,5.145253159036616
7259.496,5.13984403687843
7259.5,5.133617536260788
7259.504,5.124842738093066
7259.508,5.115551068252452
7259.512,5.105850709182108
7259.5160000000005,5.0978331881165335
7259.52,5.090765268496506
7259.524,5.086978882985776
7259.528,5.086582214027509
7259.532,5.0847190719508015
7259.536,5.087748180359385
7259.54,5.092856795731003
7259.544,5.0957777216964235
7259.548,5.0983260192465005
7259.552000000001,5.106163236240136
7259.5560000000005,5.117161784628445
7259.56,5.12609284632518
7259.564,5.136718766298147
7259.568,5.14741680789989
7259.572,5.15619160606761
7259.576,5.164882262335093
7259.58,5.175243736335881
7259.584,5.185004196763539
7259.588,5.195870522165759
7259.592000000001,5.206448361052874
7259.5960000000005,5.21428557804651
7259.6,5.224250383089031
7259.604,5.235008526048087
7259.608,5.242076445668115
7259.612,5.238061674999596
7259.616,5.23301316098529
7259.62,5.226029383265501
7259.624,5.221185213866061
7259.628,5.224178261460255
7259.6320000000005,5.226077464351351
7259.636,5.227015045525437
7259.64,5.2252480656204305
7259.644,5.217963781114075
7259.648,5.214453861846987
7259.652,5.214021132074333
7259.656,5.215078915963044
7259.66,5.209453428918532
7259.664,5.209393327561219
7259.668000000001,5.222699768070352
7259.6720000000005,5.232171741982906
7259.676,5.235861965321934
7259.68,5.235982168036561
7259.684,5.2324602284980095
7259.688,5.2276641401844195
7259.692,5.229779707961843
7259.696,5.233986802973764
7259.7,5.231137998637119
7259.704,5.226630396838632
7259.7080000000005,5.23205153926828
7259.712,5.240682094178449
7259.716,5.245345959505951
7259.72,5.252209534511113
7259.724,5.259205332502365
7259.728,5.262162319282171
7259.732,5.265491934477321
7259.736,5.270107718718972
7259.74,5.270408225505538
7259.744000000001,5.273064705498779
7259.7480000000005,5.2754687597913055
7259.752,5.272259347310782
7259.756,5.272403590568334
7259.76,5.273305110928032
7259.764,5.273821982600925
7259.768,5.268040232027399
7259.772,5.250238209991242
7259.776,5.224719173676075
7259.78,5.193250102986903
7259.784000000001,5.190100791863694
7259.7880000000005,5.259854427161347
7259.792,5.353804868913278
7259.796,5.4279098424804015
7259.8,5.5186508717518095
7259.804,5.546525881273652
7259.808,5.495463768100393
7259.812,5.446216715917991
7259.816,5.412680158537247
7259.82,5.389132446741952
7259.8240000000005,5.378458445683135
7259.828,5.380405729660081
7259.832,5.3662338296056395
7259.836,5.334704657559155
7259.84,5.3225161022960465
7259.844,5.298235153941531
7259.848,5.278810395257917
7259.852,5.273785921786536
7259.856,5.272932482512689
7259.860000000001,5.271646313466189
7259.8640000000005,5.270167820076285
7259.868,5.266970427867224
7259.872,5.263881218101329
7259.876,5.266393454837019
7259.88,5.2684849820715165
7259.884,5.269819232203869
7259.888,5.2674752792686546
7259.892,5.267331036011104
7259.896,5.2658525426212
7259.900000000001,5.261705548966592
7259.904,5.259986650147435
7259.908,5.258508156757531
7259.912,5.257414312054433
7259.916,5.25242589939744
7259.92,5.2487116355154875
7259.924,5.246872533981705
7259.928,5.241223006394268
7259.932,5.231751032481714
7259.936000000001,5.223901795216615
7259.9400000000005,5.221233294951912
7259.944,5.220319754320751
7259.948,5.211881523753983
7259.952,5.203864002688408
7259.956,5.20121954296663
7259.96,5.196916285783008
7259.964,5.190822008151452
7259.968,5.184343081833094
7259.972,5.183730047988499
7259.976000000001,5.187083703726574
7259.9800000000005,5.1882496700584495
7259.984,5.191338879824346
7259.988,5.194355967961467
7259.992,5.199308319804071
7259.996,5.209537570818771
7260.0,5.218949443374012
7260.004,5.227207369868839
7260.008,5.238326120971773
7260.012,5.242172607839816
7260.0160000000005,5.248170723299669
7260.02,5.258580278386308
7260.024,5.268797509129545
7260.028,5.276658766666106
7260.032,5.284940733703859
7260.036,5.2895324774025845
7260.04,5.29813899176983
7260.044,5.30503862758938
7260.048,5.309522188844942
7260.052000000001,5.3119142228660055
7260.0560000000005,5.317359405838578
7260.06,5.3239465146001
7260.064,5.322768527996762
7260.068,5.320677000762264
7260.072,5.321842967094139
7260.076,5.323970555143025
7260.08,5.3246076295305445
7260.084,5.323057014511865
7260.088,5.321818926551214
7260.092000000001,5.32508844038905
7260.0960000000005,5.33011291386043
7260.1,5.328634420470526
7260.104,5.326542893236028
7260.108,5.334824860273781
7260.112,5.3414119690353035
7260.116,5.338863671485226
7260.12,5.33815447546893
7260.124,5.337673664610425
7260.128,5.334512333215753
7260.1320000000005,5.333045860097312
7260.136,5.338214576826243
7260.14,5.341195604148975
7260.144,5.33609900904882
7260.148,5.336291333392222
7260.152,5.338298718726482
7260.156,5.343876124685144
7260.16,5.353889010813517
7260.164,5.364202403728454
7260.168000000001,5.368806167698642
7260.1720000000005,5.372171843708179
7260.176,5.374491756100467
7260.18,5.376402979263025
7260.184,5.37478024261557
7260.188,5.372328107237193
7260.192,5.371065978733617
7260.196,5.371570830135047
7260.2,5.375477418360402
7260.204,5.3784103645972845
7260.2080000000005,5.376943891478843
7260.212,5.360187633059935
7260.216,5.334909002174019
7260.22,5.30407700587237
7260.224,5.282897287555211
7260.228,5.322227615780943
7260.232,5.419038882140979
7260.236,5.505741100200944
7260.24,5.590183507225932
7260.244000000001,5.659420270850691
7260.2480000000005,5.6282156461336985
7260.252,5.571960775688581
7260.256,5.53217367714727
7260.26,5.4965215519891055
7260.264,5.480390347686252
7260.268,5.476591941904061
7260.272,5.474500414669563
7260.276,5.44137254651855
7260.28,5.422801227108783
7260.284000000001,5.397294211065079
7260.2880000000005,5.374323472299991
7260.292,5.36450291051502
7260.296,5.362375322466134
7260.3,5.359790964101668
7260.304,5.35536750420342
7260.308,5.352999510725281
7260.312,5.351929706565107
7260.316,5.35079980104762
7260.32,5.348900598156524
7260.3240000000005,5.346616746578624
7260.328,5.347362003409307
7260.332,5.346244118163282
7260.336,5.343611678712966
7260.34,5.3408229757336345
7260.344,5.341856719079421
7260.348,5.340642671661695
7260.352,5.338394880898183
7260.356,5.3349811238027955
7260.360000000001,5.331206758563529
7260.3640000000005,5.325557230976092
7260.368,5.32074912239104
7260.372,5.312587358067913
7260.376,5.3040169045150565
7260.38,5.298018789055203
7260.384,5.287404889353698
7260.388,5.278930597972543
7260.392,5.271994901338605
7260.396,5.264554353303236
7260.400000000001,5.256596933594974
7260.404,5.251043568179237
7260.408,5.24415595263115
7260.412,5.240790276621613
7260.416,5.241174925308417
7260.42,5.241487452366446
7260.424,5.243038067385125
7260.428,5.246415763666124
7260.432,5.251079628993626
7260.436000000001,5.257582595854909
7260.4400000000005,5.264963042532965
7260.444,5.27298056359854
7260.448,5.282103949638678
7260.452,5.292814011511883
7260.456,5.303500032842163
7260.46,5.313368675712984
7260.464,5.325989960748747
7260.468,5.335245569774973
7260.472,5.34153217174993
7260.476000000001,5.348756354898972
7260.4800000000005,5.357783578767409
7260.484,5.363312903640219
7260.488,5.364659174044034
7260.492,5.368758086612791
7260.496,5.374239330399751
7260.5,5.3766794455066655
7260.504,5.3787709727411634
7260.508,5.379384006585758
7260.512,5.379564310657697
7260.5160000000005,5.377124195550783
7260.52,5.380742297261035
7260.524,5.383843527298394
7260.528,5.379864817444263
7260.532,5.3750807494021355
7260.536,5.3737104384553955
7260.54,5.373878722255872
7260.544,5.369431221814699
7260.548,5.363397045540458
7260.552000000001,5.37185931665015
7260.5560000000005,5.386007176161668
7260.56,5.39190912944982
7260.564,5.3943011634708835
7260.568,5.393688129626289
7260.572,5.389156487284877
7260.576,5.387569811451811
7260.58,5.392221656507848
7260.584,5.398279873325015
7260.588,5.398724623369132
7260.592000000001,5.397450474594093
7260.5960000000005,5.399866549158083
7260.6,5.405299711859192
7260.604,5.415228456087325
7260.608,5.426178923389783
7260.612,5.436552417662035
7260.616,5.4366245392908095
7260.62,5.436456255490333
7260.624,5.443007303437468
7260.628,5.446000351031663
7260.6320000000005,5.4446781211707735
7260.636,5.443812661625465
7260.64,5.444233371126656
7260.644,5.446937932205748
7260.648,5.450808459616716
7260.652,5.447142276820614
7260.656,5.432537646993515
7260.66,5.408208617553148
7260.664,5.370765471947051
7260.668000000001,5.343599658441503
7260.6720000000005,5.392966913338531
7260.676,5.498625099495066
7260.68,5.5864211622581275
7260.684,5.680599989167848
7260.688,5.745521475337522
7260.692,5.698438072018393
7260.696,5.637940045746968
7260.7,5.604223184294286
7260.704,5.577586262733093
7260.7080000000005,5.567741660405198
7260.712,5.5735354312501855
7260.716,5.561935869288747
7260.72,5.529505176882567
7260.724,5.5120277021759
7260.728,5.482866523607554
7260.732,5.465112582657247
7260.736,5.45484727082816
7260.74,5.450459871744299
7260.744000000001,5.450255527129435
7260.7480000000005,5.4462407564609165
7260.752,5.4449065063285635
7260.756,5.445832067231186
7260.76,5.442766898008215
7260.764,5.444978627957339
7260.768,5.4481399593520115
7260.772,5.447899553922759
7260.776,5.445904188859962
7260.78,5.443968925154478
7260.784000000001,5.444329533298357
7260.7880000000005,5.442646695293589
7260.792,5.440831634302732
7260.796,5.440074357200585
7260.8,5.437297674492717
7260.804,5.433330984910048
7260.808,5.430373998130241
7260.812,5.425686092259815
7260.816,5.416827152191855
7260.82,5.4096390298572015
7260.8240000000005,5.402547069694249
7260.828,5.393591967454588
7260.832,5.384011811098871
7260.836,5.374912465601659
7260.84,5.367363735123126
7260.844,5.360728545275753
7260.848,5.352578801224089
7260.852,5.348347665669243
7260.856,5.347854834539275
7260.860000000001,5.349213125214552
7260.8640000000005,5.34938140901503
7260.868,5.348648172455809
7260.872,5.3512565713632
7260.876,5.357531153066693
7260.88,5.364478869972094
7260.884,5.371907397736001
7260.888,5.3808264391612735
7260.892,5.39287075116683
7260.896,5.40314808326738
7260.900000000001,5.413810064054735
7260.904,5.423690727197018
7260.908,5.436360093318632
7260.912,5.448692891839293
7260.916,5.456325764218064
7260.92,5.4627566094505715
7260.924,5.469680285813048
7260.928,5.478226698822978
7260.932,5.48567926712981
7260.936000000001,5.486953415904849
7260.9400000000005,5.488864639067408
7260.944,5.49403335579634
7260.948,5.497663477778055
7260.952,5.500884910530041
7260.956,5.502615829620659
7260.96,5.5036736135093705
7260.964,5.507604242277651
7260.968,5.509743850598
7260.972,5.506991208433058
7260.976000000001,5.500524302386161
7260.9800000000005,5.501509964646098
7260.984,5.508794249152452
7260.988,5.509491424897285
7260.992,5.502411485005795
7260.996,5.498649140037991
7261.0,5.513686499637743
7261.004,5.5246850480260505
7261.008,5.523543122237101
7261.012,5.5240960547243825
7261.0160000000005,5.523555142508563
7261.02,5.51956441238297
7261.024,5.5187470339235105
7261.028,5.519900979983923
7261.032,5.519612493468821
7261.036,5.518867236638137
7261.04,5.521463615274066
7261.044,5.526331825216431
7261.048,5.532474183933836
7261.052000000001,5.541140799658393
7261.0560000000005,5.5466460839882785
7261.06,5.551333989858705
7261.064,5.554423199624602
7261.068,5.555384821341612
7261.072,5.557524429661961
7261.076,5.558726456808224
7261.08,5.559002923051865
7261.084,5.558413929750195
7261.088,5.558702416265299
7261.092000000001,5.559495754181832
7261.0960000000005,5.561226673272451
7261.1,5.55108156415799
7261.104,5.523386858708086
7261.108,5.4923505177915715
7261.112,5.458934163125455
7261.116,5.460544879501447
7261.12,5.534938339583676
7261.124,5.641173498770415
7261.128,5.728296426331569
7261.1320000000005,5.826081334680081
7261.136,5.846010944765124
7261.14,5.781065418052524
7261.144,5.72213002707124
7261.148,5.683052124546225
7261.152,5.653987108149582
7261.156,5.641486025828445
7261.16,5.64114945822749
7261.164,5.6356922549834545
7261.168000000001,5.604619853252552
7261.1720000000005,5.589041581436981
7261.176,5.566142964300668
7261.18,5.5486053882366875
7261.184,5.539818569797505
7261.188,5.535166724741466
7261.192,5.531704886560228
7261.196,5.527738196977559
7261.2,5.527810318606335
7261.204,5.53052689995689
7261.2080000000005,5.5276901158917084
7261.212,5.525802933272076
7261.216,5.525358183227958
7261.22,5.523266655993461
7261.224,5.519600473197357
7261.228,5.5156097430717645
7261.232,5.5151529727561845
7261.236,5.513049425250224
7261.24,5.510465066885757
7261.244000000001,5.507399897662786
7261.2480000000005,5.501413802474396
7261.252,5.49586043705866
7261.256,5.495115180227977
7261.26,5.491184551459697
7261.264,5.479717212484345
7261.268,5.470353421014955
7261.272,5.458405271181099
7261.276,5.450351689301137
7261.28,5.443632357553525
7261.284000000001,5.436071606803528
7261.2880000000005,5.426106801761007
7261.292,5.421394855347655
7261.296,5.414879868214909
7261.3,5.410540550216899
7261.304,5.4041217252558535
7261.308,5.401525346619925
7261.312,5.402246562907683
7261.316,5.408076394567059
7261.32,5.414459158713717
7261.3240000000005,5.423161835252662
7261.328,5.429688842656871
7261.332,5.433138660566646
7261.336,5.43918485711235
7261.34,5.447995716094461
7261.344,5.458128804937458
7261.348,5.468610481652873
7261.352,5.4754500161151105
7261.356,5.483263192565821
7261.360000000001,5.489826260784419
7261.3640000000005,5.497675498049518
7261.368,5.504575133869068
7261.372,5.511582952131782
7261.376,5.517581067591636
7261.38,5.518674912294735
7261.384,5.517605108134561
7261.388,5.515898229586867
7261.392,5.513987006424308
7261.396,5.5154174187283616
7261.400000000001,5.517136317547519
7261.404,5.519444209668343
7261.408,5.520225527313414
7261.412,5.520682297628994
7261.416,5.521884324775257
7261.42,5.51883117582375
7261.424,5.508277377479558
7261.428,5.504515032511756
7261.432,5.507568181463264
7261.436000000001,5.504250586539577
7261.4400000000005,5.496209024931076
7261.444,5.498865504924318
7261.448,5.513842763166757
7261.452,5.519816838083686
7261.456,5.518302283879393
7261.46,5.51385478343822
7261.464,5.504394829797128
7261.468,5.492074051547931
7261.472,5.491196571731159
7261.476000000001,5.49279526783569
7261.4800000000005,5.4892853485685995
7261.484,5.487903017350397
7261.488,5.4902950513714615
7261.492,5.495848416787198
7261.496,5.502291282291168
7261.5,5.511126181816203
7261.504,5.518578750123034
7261.508,5.517665209491874
7261.512,5.518626831208884
7261.5160000000005,5.518494608222795
7261.52,5.518434506865483
7261.524,5.519011479895689
7261.528,5.520670277357532
7261.532,5.521667959888931
7261.536,5.52317049382176
7261.54,5.521187149030426
7261.544,5.516775709403639
7261.548,5.496040741130599
7261.552000000001,5.46740845450661
7261.5560000000005,5.437441917750268
7261.56,5.414362996542016
7261.564,5.445279134743905
7261.568,5.540167157669921
7261.572,5.631160612642042
7261.576,5.71459331686417
7261.58,5.783625735874065
7261.584,5.747673103929333
7261.588,5.677847347002905
7261.592000000001,5.629910504409929
7261.5960000000005,5.594162217080063
7261.6,5.574917762468388
7261.604,5.568318633435404
7261.608,5.5763722153153665
7261.612,5.557536449933423
7261.616,5.53984261034043
7261.62,5.530178312084474
7261.624,5.505620897486317
7261.628,5.493877092267326
7261.6320000000005,5.488035240336487
7261.636,5.485523003600796
7261.64,5.485198456271305
7261.644,5.48375602369579
7261.648,5.483046827679494
7261.652,5.484513300797935
7261.656,5.481604395103979
7261.66,5.478118516379816
7261.664,5.474728799827353
7261.668000000001,5.473045961822584
7261.6720000000005,5.471315042731965
7261.676,5.46832199513777
7261.68,5.464367325826564
7261.684,5.460184271357568
7261.688,5.457095061591672
7261.692,5.452070588120292
7261.696,5.445675803702172
7261.7,5.441204262718073
7261.704,5.434737356671176
7261.7080000000005,5.428306511438668
7261.712,5.421995868920787
7261.716,5.413509557268169
7261.72,5.40406162389854
7261.724,5.395623393331773
7261.728,5.387269304665245
7261.732,5.3803696688456935
7261.736,5.373878722255872
7261.74,5.3679046473389445
7261.744000000001,5.363853815856038
7261.7480000000005,5.360379957403337
7261.752,5.358264389625914
7261.756,5.3588654031990455
7261.76,5.359045707270985
7261.764,5.3601034911596965
7261.768,5.3627479508814755
7261.772,5.3661737282483255
7261.776,5.369924052944667
7261.78,5.3763548981771745
7261.784000000001,5.38231695282264
7261.7880000000005,5.391716805106418
7261.792,5.3990010896127725
7261.796,5.404097684712929
7261.8,5.410516509673974
7261.804,5.41794503743788
7261.808,5.426888119406078
7261.812,5.431936633420383
7261.816,5.4378626272514605
7261.82,5.440483046430316
7261.8240000000005,5.443139526423558
7261.828,5.44538731718707
7261.832,5.448596729667592
7261.836,5.451385432646922
7261.84,5.453669284224822
7261.844,5.455376162772516
7261.848,5.452491297621484
7261.852,5.4516618988905625
7261.856,5.449582391927527
7261.860000000001,5.44685379030551
7261.8640000000005,5.449125621611947
7261.868,5.447262479535239
7261.872,5.443488114295974
7261.876,5.438463640824592
7261.88,5.4351220053579805
7261.884,5.436684640648123
7261.888,5.435963424360365
7261.892,5.427969943837715
7261.896,5.435242208072607
7261.900000000001,5.445219033386592
7261.904,5.444834384699788
7261.908,5.446565303790408
7261.912,5.446841770034048
7261.916,5.436780802819824
7261.92,5.433691593053927
7261.924,5.4355787756735605
7261.928,5.435422512144546
7261.932,5.433367045724436
7261.936000000001,5.432032795592084
7261.9400000000005,5.43461715395655
7261.944,5.440711431588105
7261.948,5.447755310665207
7261.952,5.450892601516954
7261.956,5.45781627787943
7261.96,5.4591024469259315
7261.964,5.458597595524501
7261.968,5.459258710454946
7261.972,5.459499115884198
7261.976000000001,5.460172251086106
7261.9800000000005,5.458922142853992
7261.984,5.457527791364327
7261.988,5.456289703403676
7261.992,5.457792237336505
7261.996,5.452984128751452
7262.0,5.432177038849636
7262.004,5.40561223891722
7262.008,5.367568079737991
7262.012,5.353143753982833
7262.0160000000005,5.407331137736376
7262.02,5.500283896956909
7262.024,5.5743167488952565
7262.028,5.662966250932167
7262.032,5.71459331686417
7262.036,5.667269508115789
7262.04,5.614464455580448
7262.044,5.582346290232295
7262.048,5.557368166132946
7262.052000000001,5.5476918476055275
7262.0560000000005,5.54701871240362
7262.06,5.5279786024068125
7262.064,5.500055511799119
7262.068,5.480714895015743
7262.072,5.450435831201374
7262.076,5.430987031974835
7262.08,5.424099416426747
7262.084,5.421094348561089
7262.088,5.415961692646546
7262.092000000001,5.412944604509425
7262.0960000000005,5.412355611207756
7262.1,5.408869732483593
7262.104,5.402607171051562
7262.108,5.3978591638238225
7262.112,5.3949863189442535
7262.116,5.3961282447332035
7262.12,5.397017744821438
7262.124,5.393315501210948
7262.128,5.3904186157884535
7262.1320000000005,5.388315068282493
7262.136,5.386451926205785
7262.14,5.384384439514212
7262.144,5.3771362158222455
7262.148,5.368541721726464
7262.152,5.362435423823447
7262.156,5.355704071804373
7262.16,5.348672212998734
7262.164,5.339176198543254
7262.168000000001,5.329668163816312
7262.1720000000005,5.321386196778558
7262.176,5.31257533779645
7262.18,5.302334066510288
7262.184,5.29266976825433
7262.188,5.284303659316339
7262.192,5.277211699153387
7262.196,5.27138186749401
7262.2,5.26420576543082
7262.204,5.26311192072772
7262.2080000000005,5.264049501901805
7262.212,5.263508589685987
7262.216,5.265011123618816
7262.22,5.269134076730499
7262.224,5.274290773187968
7262.228,5.282260213167692
7262.232,5.291840369523409
7262.236,5.302382147596139
7262.24,5.312635439153763
7262.244000000001,5.322287717138256
7262.2480000000005,5.332048177565913
7262.252,5.343106827311535
7262.256,5.3569060989506365
7262.26,5.366979086436322
7262.264,5.372941141081787
7262.268,5.378422384868747
7262.272,5.384408480057138
7262.276,5.386355764034084
7262.28,5.390983568547197
7262.284000000001,5.394373285099659
7262.2880000000005,5.395034400030104
7262.292,5.397811082737972
7262.296,5.398496238211342
7262.3,5.399073211241548
7262.304,5.399169373413249
7262.308,5.401717670963327
7262.312,5.402823535937889
7262.316,5.4004074613739
7262.32,5.3983159341394025
7262.3240000000005,5.393940555327005
7262.328,5.389084365656101
7262.332,5.388699716969297
7262.336,5.391007609090122
7262.34,5.388904061584162
7262.344,5.382533317708967
7262.348,5.388615575069059
7262.352,5.406778205249096
7262.356,5.4113338881334325
7262.360000000001,5.411081462432717
7262.3640000000005,5.410360246144959
7262.368,5.404987184801163
7262.372,5.399542001828591
7262.376,5.402018177749893
7262.38,5.407271036379063
7262.384,5.407751847237568
7262.388,5.4059848673325614
7262.392,5.404001522541227
7262.396,5.405924765975248
7262.400000000001,5.41593765210362
7262.404,5.4266236734339
7262.408,5.43279007269423
7262.412,5.437261613678329
7262.416,5.440591228873479
7262.42,5.440843654574194
7262.424,5.441120120817835
7262.428,5.441204262718073
7262.432,5.442129823620696
7262.436000000001,5.44187739791998
7262.4400000000005,5.443151546695019
7262.444,5.442442350678724
7262.448,5.435698978388187
7262.452,5.408545185154102
7262.456,5.371895377464538
7262.46,5.330040792231654
7262.464,5.312503216167674
7262.468,5.384733027386629
7262.472,5.518146020350379
7262.476000000001,5.6376755997747905
7262.4800000000005,5.750822415052543
7262.484,5.802449480984547
7262.488,5.744355509005647
7262.492,5.678929171434542
7262.496,5.636677917243391
7262.5,5.5983933526349094
7262.504,5.580663452227527
7262.508,5.576095749071726
7262.512,5.564291842495423
7262.5160000000005,5.518073898721603
7262.52,5.4902589905570744
7262.524,5.452539378707335
7262.528,5.425746193617128
7262.532,5.416863213006243
7262.536,5.412824401794799
7262.54,5.409025996012607
7262.544,5.403580813040035
7262.548,5.397678859751883
7262.552000000001,5.392450041665638
7262.5560000000005,5.39241398085125
7262.56,5.394385305371122
7262.564,5.395923900118339
7262.568,5.3911999334335245
7262.572,5.387353446565482
7262.576,5.3863677843055475
7262.58,5.384961412544419
7262.584,5.382052506850462
7262.588,5.378157938896569
7262.592000000001,5.369887992130279
7262.5960000000005,5.363240782011443
7262.6,5.358685099127106
7262.604,5.352819206653342
7262.608,5.346436442506684
7262.612,5.337805887596514
7262.616,5.328958967800017
7262.62,5.318837899228481
7262.624,5.308115817083814
7262.628,5.30047092443358
7262.6320000000005,5.29069844373446
7262.636,5.278173320870398
7262.64,5.267054569767463
7262.644,5.258387954042906
7262.648,5.2543251022885356
7262.652,5.25585167676429
7262.656,5.257089764724942
7262.66,5.2567171363096
7262.664,5.257197947168105
7262.668000000001,5.260767967792507
7262.6720000000005,5.265696279092185
7262.676,5.272091063510306
7262.68,5.281707280680411
7262.684,5.293042396669674
7262.688,5.305303073561558
7262.692,5.318885980314332
7262.696,5.329259474586583
7262.7,5.339536806687133
7262.704,5.3475423074812465
7262.7080000000005,5.360632383104052
7262.712,5.371029917919229
7262.716,5.380441790474469
7262.72,5.385297980145372
7262.724,5.385802831546803
7262.728,5.3920774132502975
7262.732,5.398508258482805
7262.736,5.401897975035267
7262.74,5.403160103538843
7262.744000000001,5.403580813040035
7262.7480000000005,5.406706083620319
7262.752,5.40675416470617
7262.756,5.404638596928747
7262.76,5.405792542989159
7262.764,5.408076394567059
7262.768,5.404975164529701
7262.772,5.404422232042419
7262.776,5.409651050128664
7262.78,5.409170239270159
7262.784000000001,5.402018177749893
7262.7880000000005,5.395322886545207
7262.792,5.395479150074221
7262.796,5.395395008173983
7262.8,5.388519412897358
7262.804,5.383531000240366
7262.808,5.396500873148545
7262.812,5.40885771221213
7262.816,5.409578928499888
7262.82,5.406886387692259
7262.8240000000005,5.406369516019366
7262.828,5.402270603450609
7262.832,5.400118974858797
7262.836,5.402354745350847
7262.84,5.403809198197825
7262.844,5.407331137736376
7262.848,5.410817016460539
7262.852,5.410300144787646
7262.856,5.414387037084941
7262.860000000001,5.4254336665591
7262.8640000000005,5.430987031974835
7262.868,5.4337516944112405
7262.872,5.432729971336917
7262.876,5.433559370067838
7262.88,5.434364728255835
7262.884,5.434581093142162
7262.888,5.435771100016963
7262.892,5.435085944543593
7262.896,5.4346652350424005
7262.900000000001,5.436744742005436
7262.904,5.434064221469269
7262.908,5.421995868920787
7262.912,5.389913764387023
7262.916,5.3552112406744055
7262.92,5.320893365648591
7262.924,5.3282978528695715
7262.928,5.408328820267775
7262.932,5.514744283526454
7262.936000000001,5.600244474440155
7262.9400000000005,5.691033584797411
7262.944,5.693978551305757
7262.948,5.624741787680998
7262.952,5.5691600524377876
7262.956,5.533159339407207
7262.96,5.505200187985125
7262.964,5.492951531364703
7262.968,5.4972307480054
7262.972,5.493047693536405
7262.976000000001,5.467432495049535
7262.9800000000005,5.4607852849307
7262.984,5.436468275761795
7262.988,5.417824834723254
7262.992,5.411045401618329
7262.996,5.407956191852433
7263.0,5.405708401088921
7263.004,5.402246562907683
7263.008,5.401801812863566
7263.012,5.401224839833359
7263.0160000000005,5.398880886898146
7263.02,5.3955753122459225
7263.024,5.394024697227243
7263.028,5.391644683477642
7263.032,5.389685379229233
7263.036,5.38716112222208
7263.04,5.384408480057138
7263.044,5.382208770379476
7263.048,5.376258736005473
7263.052000000001,5.373530134383456
7263.0560000000005,5.371570830135047
7263.06,5.368493640640613
7263.064,5.363877856398963
7263.068,5.357326808451829
7263.072,5.351016165933947
7263.076,5.344813705859229
7263.08,5.339669029673221
7263.084,5.333646873670443
7263.088,5.325485109347317
7263.092000000001,5.319739419588179
7263.0960000000005,5.31531595968993
7263.1,5.311265128207023
7263.104,5.3059401479490775
7263.108,5.304461654559174
7263.112,5.302959120626345
7263.116,5.303956803157742
7263.12,5.301480627236441
7263.124,5.301300323164502
7263.128,5.306505100707821
7263.1320000000005,5.3102794659470876
7263.136,5.3116858377082155
7263.14,5.3174315274673525
7263.144,5.322924791525776
7263.148,5.330521603090159
7263.152,5.339284380986418
7263.156,5.3469533141795775
7263.16,5.355968517776551
7263.164,5.360091470888234
7263.168000000001,5.363373004997532
7263.1720000000005,5.367652221638229
7263.176,5.37094577601899
7263.18,5.374635999358018
7263.184,5.379047438984804
7263.188,5.38231695282264
7263.192,5.386836574892589
7263.196,5.385983135618742
7263.2,5.389997906287261
7263.204,5.389985886015799
7263.2080000000005,5.38345887861159
7263.212,5.385538385574625
7263.216,5.3854903044887745
7263.22,5.386980818150141
7263.224,5.386824554621127
7263.228,5.3801412836879035
7263.232,5.372123762622328
7263.236,5.367964748696258
7263.24,5.368217174396973
7263.244000000001,5.372532451852058
7263.2480000000005,5.369563444800788
7263.252,5.361329558848885
7263.256,5.369707688058339
7263.26,5.378290161882658
7263.264,5.378398344325822
7263.268,5.377965614553167
7263.272,5.37551347917479
7263.276,5.370296681360008
7263.28,5.365224126802778
7263.284000000001,5.369611525886638
7263.2880000000005,5.37414316822805
7263.292,5.369563444800788
7263.296,5.366450194491966
7263.3,5.369647586701026
7263.304,5.374251350671214
7263.308,5.383098270467711
7263.312,5.388423250725657
7263.316,5.390610940131856
7263.32,5.3902503319879775
7263.3240000000005,5.390142149544813
7263.328,5.3929308525241435
7263.332,5.392738528180741
7263.336,5.391644683477642
7263.34,5.392618325466115
7263.344,5.392726507909279
7263.348,5.390166190087738
7263.352,5.388783858869536
7263.356,5.381667858163658
7263.360000000001,5.358997626185135
7263.3640000000005,5.334187785886262
7263.368,5.3063368169073435
7263.372,5.29539836987635
7263.376,5.340883077090948
7263.38,5.433956039026105
7263.384,5.511366587245455
7263.388,5.588476628678238
7263.392,5.641125417684565
7263.396,5.596999001145243
7263.400000000001,5.538592502108316
7263.404,5.500872890258577
7263.408,5.474476374126637
7263.412,5.462107514791589
7263.416,5.4627205486361845
7263.42,5.461963271534038
7263.424,5.431455822561878
7263.428,5.419050902412442
7263.432,5.395358947359596
7263.436000000001,5.3740950871422
7263.4400000000005,5.3668588837216955
7263.444,5.360824707447455
7263.448,5.355403565017808
7263.452,5.352578801224089
7263.456,5.35057141588983
7263.46,5.350078584759862
7263.464,5.348539990012645
7263.468,5.344272793643412
7263.472,5.341892779893809
7263.476000000001,5.340738833833396
7263.4800000000005,5.34043832704683
7263.484,5.339669029673221
7263.488,5.335305671132287
7263.492,5.334392130501127
7263.496,5.332516968152956
7263.5,5.3267953189367425
7263.504,5.320809223748353
7263.508,5.317804155882695
7263.512,5.3116858377082155
7263.5160000000005,5.304052965329444
7263.52,5.294689173860054
7263.524,5.286623571708628
7263.528,5.27813726005601
7263.532,5.2700836781760465
7263.536,5.259085129787738
7263.54,5.246932635339018
7263.544,5.23872278993004
7263.548,5.230332640449124
7263.552000000001,5.22428644390342
7263.5560000000005,5.219959146176873
7263.56,5.216593470167336
7263.564,5.212302233255176
7263.568,5.213456179315588
7263.572,5.215992456594204
7263.576,5.2170261999399905
7263.58,5.220415916492453
7263.584,5.225728876478935
7263.588,5.233662255644273
7263.592000000001,5.243398675529004
7263.5960000000005,5.253315399485675
7263.6,5.262919596384317
7263.604,5.269783171389481
7263.608,5.277800692455056
7263.612,5.28727266636761
7263.616,5.296167667249958
7263.62,5.3035601341994765
7263.624,5.309906837531746
7263.628,5.315700608376734
7263.6320000000005,5.3192586087296725
7263.636,5.322035291437541
7263.64,5.325557230976092
7263.644,5.327672798753515
7263.648,5.328754623185152
7263.652,5.32810552852617
7263.656,5.330497562547234
7263.66,5.3320121167515255
7263.664,5.33102645449159
7263.668000000001,5.332192420823465
7263.6720000000005,5.33313000199755
7263.676,5.333322326340952
7263.68,5.334031522357248
7263.684,5.330365339561145
7263.688,5.325929859391434
7263.692,5.32371812944231
7263.696,5.3245715687161566
7263.7,5.326362589164089
7263.704,5.319535074973313
7263.7080000000005,5.3142942366156065
7263.712,5.3278050217396045
7263.716,5.336868306422429
7263.72,5.337601542981649
7263.724,5.33632739420661
7263.728,5.332156360009076
7263.732,5.3274203730528
7263.736,5.3272160284379355
7263.74,5.330401400375532
7263.744000000001,5.33244484652418
7263.7480000000005,5.337084671308756
7263.752,5.337745786239201
7263.756,5.3362552725778345
7263.76,5.34016186080319
7263.764,5.349561713086969
7263.768,5.357182565194277
7263.772,5.36016359251701
7263.776,5.361425721020587
7263.78,5.362315221108821
7263.784000000001,5.365200086259852
7263.7880000000005,5.367231512137037
7263.792,5.365740998475671
7263.796,5.363709572598486
7263.8,5.3651640254454644
7263.804,5.365837160647372
7263.808,5.361257437220109
7263.812,5.344368955815112
7263.816,5.314714946116799
7263.82,5.272908441969764
7263.8240000000005,5.2356576207070695
7263.828,5.273305110928032
7263.832,5.39739037323678
7263.836,5.530959629729545
7263.84,5.64356553279148
7263.844,5.741098015439274
7263.848,5.71591554672506
7263.852,5.64110137714164
7263.856,5.5950637374397605
7263.860000000001,5.541176860472782
7263.8640000000005,5.511450729145694
7263.868,5.501497944374634
7263.872,5.491172531188234
7263.876,5.449522290570215
7263.88,5.417572409022538
7263.884,5.375357215645776
7263.888,5.348612111641421
7263.892,5.339260340443492
7263.896,5.335654259004703
7263.900000000001,5.331206758563529
7263.904,5.329091190786106
7263.908,5.32719198789501
7263.912,5.324848034959797
7263.916,5.322011250894616
7263.92,5.320280331803997
7263.924,5.318032541040484
7263.928,5.3153400002328555
7263.932,5.317744054525382
7263.936000000001,5.31645788547888
7263.9400000000005,5.314991412360439
7263.944,5.313128270283731
7263.948,5.307346519710205
7263.952,5.302213863795662
7263.956,5.296420092950672
7263.96,5.288727119214588
7263.964,5.282043848281365
7263.968,5.26785992795546
7263.972,5.258015325627564
7263.976000000001,5.251848926367233
7263.9800000000005,5.240261384677257
7263.984,5.226954944168123
7263.988,5.217735395956286
7263.992,5.207674428742062
7263.996,5.196171028952325
7264.0,5.188586237659403
7264.004,5.182215493784208
7264.008,5.174077770004007
7264.012,5.169606229019907
7264.0160000000005,5.169005215446775
7264.02,5.170291384493277
7264.024,5.173837364574754
7264.028,5.175772628280237
7264.032,5.182371757313223
7264.036,5.1902089743068585
7264.04,5.201580151110509
7264.044,5.212157989997624
7264.048,5.223901795216615
7264.052000000001,5.235537417992443
7264.0560000000005,5.246812432624391
7264.06,5.2591211906021265
7264.064,5.269518725417303
7264.068,5.278449787114038
7264.072,5.286130740578659
7264.076,5.295218065804409
7264.08,5.30316346524121
7264.084,5.306493080436359
7264.088,5.309257742872764
7264.092000000001,5.312935945940329
7264.0960000000005,5.3137172635854
7264.1,5.316578088193506
7264.104,5.317155061223712
7264.108,5.31714304095225
7264.112,5.317984459954634
7264.116,5.319030223571883
7264.12,5.321290034606858
7264.124,5.324054697043263
7264.128,5.323044994240402
7264.1320000000005,5.322492061753121
7264.136,5.323790251071085
7264.14,5.323958534871562
7264.144,5.320965487277367
7264.148,5.317683953168069
7264.152,5.317359405838578
7264.156,5.3210496291776055
7264.16,5.318032541040484
7264.164,5.311421391736038
7264.168000000001,5.320965487277367
7264.1720000000005,5.333069900640237
7264.176,5.333863238556771
7264.18,5.335401833303988
7264.184,5.333670914213369
7264.188,5.328394015041273
7264.192,5.326290467535313
7264.196,5.3297282651736255
7264.2,5.330557663904547
7264.204,5.331843832951049
7264.2080000000005,5.332288582995166
7264.212,5.332961718197073
7264.216,5.3376255835245745
7264.22,5.345895530290866
7264.224,5.354706389272975
7264.228,5.3602357141457855
7264.232,5.362832092781714
7264.236,5.3618344102503155
7264.24,5.363481187440696
7264.244000000001,5.364599072686721
7264.2480000000005,5.363697552327023
7264.252,5.362735930610013
7264.256,5.3636614915126355
7264.26,5.365440491689105
7264.264,5.36889030959888
7264.268,5.360115511431159
7264.272,5.332685251953433
7264.276,5.2971653497813564
7264.28,5.2580754269848775
7264.284000000001,5.260683825892269
7264.2880000000005,5.347265841237606
7264.292,5.456253642589288
7264.296,5.543015962006564
7264.3,5.643505431434166
7264.304,5.655970452940916
7264.308,5.5850869121257745
7264.312,5.532281859590435
7264.316,5.497663477778055
7264.32,5.473382529423538
7264.3240000000005,5.46626652871766
7264.328,5.469415839840869
7264.332,5.45146957454716
7264.336,5.420012524129453
7264.34,5.405443955116743
7264.344,5.37592216840452
7264.348,5.357903781482035
7264.352,5.352230213351673
7264.356,5.348131300782915
7264.360000000001,5.347734631824649
7264.3640000000005,5.346376341149372
7264.368,5.342085104237212
7264.372,5.338515083612808
7264.376,5.33929640125788
7264.38,5.34117156360605
7264.384,5.3391281174574035
7264.388,5.337349117280934
7264.392,5.335089306245959
7264.396,5.333851218285308
7264.400000000001,5.330918272048426
7264.404,5.329680184087775
7264.408,5.326494812150177
7264.412,5.324487426815918
7264.416,5.319799520945492
7264.42,5.315303939418468
7264.424,5.30800763464065
7264.428,5.299617485159733
7264.432,5.290193592333029
7264.436000000001,5.283798807914908
7264.4400000000005,5.279255145302034
7264.444,5.270684691749178
7264.448,5.263172022085033
7264.452,5.258556237843382
7264.456,5.252546102112066
7264.46,5.2431342295568255
7264.464,5.237677026312791
7264.468,5.234143066502777
7264.472,5.232880937999202
7264.476000000001,5.2304047620778995
7264.4800000000005,5.226185646794516
7264.484,5.222339159926474
7264.488,5.224815335847776
7264.492,5.230236478277422
7264.496,5.238782891287354
7264.5,5.245802729821531
7264.504,5.25169266283822
7264.508,5.259565940646244
7264.512,5.269218218630737
7264.5160000000005,5.2819597063811266
7264.52,5.290506119391058
7264.524,5.298523640456633
7264.528,5.3103155267614754
7264.532,5.313272513541282
7264.536,5.319174466829435
7264.54,5.32696360273722
7264.544,5.3324688870671055
7264.548,5.333827177742383
7264.552000000001,5.334632535930379
7264.5560000000005,5.335846583348105
7264.56,5.336363455020997
7264.564,5.340510448675606
7264.568,5.342758239439119
7264.572,5.340522468947069
7264.576,5.340342164875129
7264.58,5.3425178340098665
7264.584,5.346147955991581
7264.588,5.3459436113767165
7264.592000000001,5.3471816993373675
7264.5960000000005,5.342589955638642
7264.6,5.338286698455019
7264.604,5.340197921617578
7264.608,5.339873374288087
7264.612,5.3321443397376145
7264.616,5.327480474410113
7264.62,5.338887712028151
7264.624,5.354237598685932
7264.628,5.3573628692662165
7264.6320000000005,5.353119713439908
7264.636,5.345414719432361
7264.64,5.335161427874734
7264.644,5.331639488336184
7264.648,5.339560847230058
7264.652,5.3428423813393575
7264.656,5.342638036724493
7264.66,5.345967651919642
7264.664,5.349814138787684
7264.668000000001,5.354249618957395
7264.6720000000005,5.3642144239999165
7264.676,5.368794147427179
7264.68,5.372604573480833
7264.684,5.376318837362787
7264.688,5.379732594458175
7264.692,5.383470898883052
7264.696,5.384456561142988
7264.7,5.385201817973671
7264.704,5.386920716792828
7264.7080000000005,5.387521730365959
7264.712,5.39058689958893
7264.716,5.3944333864569725
7264.72,5.3921495348790724
7264.724,5.374323472299991
7264.728,5.347854834539275
7264.732,5.315219797518229
7264.736,5.292777950697496
7264.74,5.328826744813928
7264.744000000001,5.415745327760218
7264.7480000000005,5.490307071642924
7264.752,5.56313789643501
7264.756,5.628924842149994
7264.76,5.596097480785546
7264.764,5.5298417444835195
7264.768,5.487422206491892
7264.772,5.460196291629031
7264.776,5.448969358082934
7264.78,5.449173702697799
7264.784000000001,5.456193541231975
7264.7880000000005,5.434761397214102
7264.792,5.425217301672772
7264.796,5.415060172286848
7264.8,5.392426001122713
7264.804,5.383939689470096
7264.808,5.380622094546409
7264.812,5.377196317179559
7264.816,5.37569378324673
7264.82,5.374972566958972
7264.8240000000005,5.37574186433258
7264.828,5.375321154831388
7264.832,5.376018330576221
7264.836,5.373830641170022
7264.84,5.372893059995937
7264.844,5.372688715381072
7264.848,5.371366485520182
7264.852,5.370753451675588
7264.856,5.369779809687115
7264.860000000001,5.367303633765813
7264.8640000000005,5.36587322146176
7264.868,5.363673511784098
7264.872,5.35833651125469
7264.876,5.354237598685932
7264.88,5.3484558481124065
7264.884,5.344044408485621
7264.888,5.338983874199852
7264.892,5.332096258651764
7264.896,5.32303297396894
7264.900000000001,5.314053831186354
7264.904,5.305771864148601
7264.908,5.299040512129527
7264.912,5.295025741461008
7264.916,5.290494099119595
7264.92,5.284724368817532
7264.924,5.280180706204657
7264.928,5.279411408831049
7264.932,5.277656449197504
7264.936000000001,5.277872814083832
7264.9400000000005,5.280673537334624
7264.944,5.283017490269838
7264.948,5.28658751089424
7264.952,5.292176937124363
7264.956,5.300338701447491
7264.96,5.305639641162512
7264.964,5.308776932014259
7264.968,5.316097277335001
7264.972,5.325857737762658
7264.976000000001,5.331062515305978
7264.9800000000005,5.33746931999556
7264.984,5.34600371273403
7264.988,5.352614862038477
7264.992,5.357447011166455
7264.996,5.362543606266611
7265.0,5.364538971329408
7265.004,5.36660645802098
7265.008,5.366774741821457
7265.012,5.370356782717321
7265.0160000000005,5.371186181448243
7265.02,5.372977201896175
7265.024,5.373169526239577
7265.028,5.3729291208103245
7265.032,5.372376188323043
7265.036,5.372917100538862
7265.04,5.37295316135325
7265.044,5.371017897647767
7265.048,5.364382707800393
7265.052000000001,5.36089682907623
7265.0560000000005,5.361509862920824
7265.06,5.363709572598486
7265.064,5.36249552518076
7265.068,5.358685099127106
7265.072,5.368349397383062
7265.076,5.377160256365171
7265.08,5.3752129723882245
7265.084,5.3738426614414845
7265.088,5.37582600623282
7265.092000000001,5.372099722079403
7265.0960000000005,5.367099289150948
7265.1,5.3670872688794855
7265.104,5.369226877199834
7265.108,5.366594437749518
7265.112,5.364923620016212
7265.116,5.3644428091577065
7265.12,5.368241214939898
7265.124,5.37911956061358
7265.128,5.389384872442667
7265.1320000000005,5.395875819032488
7265.136,5.398231792239164
7265.14,5.400167055944649
7265.144,5.40017907621611
7265.148,5.403268285982007
7265.152,5.4062132524903515
7265.156,5.406129110590113
7265.16,5.402330704807921
7265.164,5.402799495394964
7265.168000000001,5.402763434580576
7265.1720000000005,5.392305798408087
7265.176,5.364310586171618
7265.18,5.333983441271396
7265.184,5.298163032312755
7265.188,5.298499599913709
7265.192,5.388182845296404
7265.196,5.511005979101576
7265.2,5.606651279129737
7265.204,5.702344660243749
7265.2080000000005,5.727262682985784
7265.212,5.667041122957999
7265.216,5.61516163132528
7265.22,5.565878518328489
7265.224,5.535467231528032
7265.228,5.523182514093222
7265.232,5.517400763519696
7265.236,5.486328361788792
7265.24,5.45484727082816
7265.244000000001,5.423378200138989
7265.2480000000005,5.3953469270881325
7265.252,5.380549972917633
7265.256,5.374768222344107
7265.26,5.371306384162869
7265.264,5.37048900570341
7265.268,5.369214856928372
7265.272,5.369323039371535
7265.276,5.365933322819074
7265.28,5.364755336215735
7265.284000000001,5.363613410426785
7265.2880000000005,5.360836727718917
7265.292,5.355607909632672
7265.296,5.352278294437523
7265.3,5.350763740233232
7265.304,5.349970402316698
7265.308,5.348852517070673
7265.312,5.345787347847702
7265.316,5.343335212469325
7265.32,5.338743468770599
7265.3240000000005,5.332384745166867
7265.328,5.324355203829829
7265.332,5.316289601678403
7265.336,5.308548546856469
7265.34,5.29905253240099
7265.344,5.28727266636761
7265.348,5.275805327392259
7265.352,5.266297292665317
7265.356,5.259914528518659
7265.360000000001,5.249420831531782
7265.3640000000005,5.2395762292038865
7265.368,5.233109323156992
7265.372,5.226582315752782
7265.376,5.220259652963438
7265.38,5.219322071789353
7265.384,5.219454294775442
7265.388,5.220247632691975
7265.392,5.225740896750398
7265.396,5.231390424337834
7265.400000000001,5.238422283143474
7265.404,5.249793459947123
7265.408,5.262330603082649
7265.412,5.275060070561575
7265.416,5.286383166279374
7265.42,5.2972615119530575
7265.424,5.3101833037753865
7265.428,5.322924791525776
7265.432,5.3335146506843545
7265.436000000001,5.343479455726877
7265.4400000000005,5.350655557790068
7265.444,5.358132166639825
7265.448,5.3622911805658955
7265.452,5.3660775660766244
7265.456,5.371186181448243
7265.46,5.375777925146968
7265.464,5.377689148309527
7265.468,5.3777252091239145
7265.472,5.379985020158889
7265.476000000001,5.383494939425978
7265.4800000000005,5.384312317885437
7265.484,5.382905946124309
7265.488,5.3821967501080135
7265.492,5.383170392096487
7265.496,5.382172709565088
7265.5,5.377424702337349
7265.504,5.3740950871422
7265.508,5.375321154831388
7265.512,5.375092769673598
7265.5160000000005,5.369515363714938
7265.52,5.373205587053965
7265.524,5.387004858693066
7265.528,5.3935799471831265
7265.532,5.393002974152919
7265.536,5.392353879493938
7265.54,5.390094068458962
7265.544,5.384973432815881
7265.548,5.384913331458568
7265.552000000001,5.391284075333763
7265.5560000000005,5.392582264651727
7265.56,5.390021946830187
7265.564,5.390791244203795
7265.568,5.391824987549581
7265.572,5.400972414132644
7265.576,5.40908609736992
7265.58,5.415384719616339
7265.584,5.420012524129453
7265.588,5.423101733895349
7265.592000000001,5.4244840651135515
7265.5960000000005,5.425505788187875
7265.6,5.424580227285253
7265.604,5.424904774614744
7265.608,5.425589930088114
7265.612,5.424219619141374
7265.616,5.426419328819035
7265.62,5.423209916338513
7265.624,5.411081462432717
7265.628,5.383999790827408
7265.6320000000005,5.346184016805969
7265.636,5.3074426818819065
7265.64,5.33262515059612
7265.644,5.438066971866325
7265.648,5.550312266784382
7265.652,5.649900215852287
7265.656,5.731505838812093
7265.66,5.697452409758458
7265.664,5.621255908956835
7265.668000000001,5.5786560668932665
7265.6720000000005,5.548641449051076
7265.676,5.530178312084474
7265.68,5.523579183051488
7265.684,5.527221325304667
7265.688,5.495884477601585
7265.692,5.476471739189434
7265.696,5.445988330760201
7265.7,5.412944604509425
7265.704,5.402354745350847
7265.7080000000005,5.399409778842502
7265.712,5.3971740083504525
7265.716,5.394349244556734
7265.72,5.3950824811159555
7265.724,5.395755616317862
7265.728,5.394385305371122
7265.732,5.392462061937101
7265.736,5.388266987196642
7265.74,5.38716112222208
7265.744000000001,5.384528682771764
7265.7480000000005,5.382449175808729
7265.752,5.381752000063896
7265.756,5.3809226013329745
7265.76,5.375850046775745
7265.764,5.373878722255872
7265.768,5.371318404434333
7265.772,5.369647586701026
7265.776,5.363216741468518
7265.78,5.356521450263832
7265.784000000001,5.351785463307556
7265.7880000000005,5.344489158529738
7265.792,5.338491043069883
7265.796,5.331663528879109
7265.8,5.3232012577694166
7265.804,5.314258175801219
7265.808,5.307863391383098
7265.812,5.299761728417285
7265.816,5.290361876133505
7265.82,5.284952753975321
7265.8240000000005,5.2841233552444
7265.828,5.2807456589634
7265.832,5.280192726476119
7265.836,5.280541314348536
7265.84,5.284027193072698
7265.844,5.284892652618009
7265.848,5.29033783559058
7265.852,5.2942925049017875
7265.856,5.298848187786124
7265.860000000001,5.3083562225130665
7265.8640000000005,5.317864257240008
7265.868,5.32577359586242
7265.872,5.3349811238027955
7265.876,5.34783079399635
7265.88,5.354586186558349
7265.884,5.3612454169486465
7265.888,5.368902329870343
7265.892,5.37345801275468
7265.896,5.37569378324673
7265.900000000001,5.382509277166042
7265.904,5.38734142629402
7265.908,5.3919211497212824
7265.912,5.393892474241154
7265.916,5.394096818856019
7265.92,5.396332589348068
7265.924,5.397354312422392
7265.928,5.394733893243538
7265.932,5.397029765092901
7265.936000000001,5.399193413956175
7265.9400000000005,5.40104453576142
7265.944,5.402174441278907
7265.948,5.398977049069847
7265.952,5.394914197315478
7265.956,5.393027014695845
7265.96,5.395431068988371
7265.964,5.393928535055542
7265.968,5.385634547746326
7265.972,5.388170825024942
7265.976000000001,5.402703333223263
7265.9800000000005,5.406910428235184
7265.984,5.405504056474056
7265.988,5.406814266063483
7265.992,5.4036649549402735
7265.996,5.399710285629068
7266.0,5.402547069694249
7266.004,5.4078119485948815
7266.008,5.4065377998198425
7266.012,5.408088414838522
7266.0160000000005,5.410720854288838
7266.02,5.41662280757699
7266.024,5.427789639765775
7266.028,5.4370813096063895
7266.032,5.441588911404877
7266.036,5.445411357729994
7266.04,5.447959655280072
7266.044,5.44895733781147
7266.048,5.448320263423952
7266.052000000001,5.450844520431104
7266.0560000000005,5.451818162419577
7266.06,5.452058567848829
7266.064,5.452298973278083
7266.068,5.452503317892948
7266.072,5.450856540702566
7266.076,5.435927363545978
7266.08,5.408232658096074
7266.084,5.377076114464932
7266.088,5.353035571539669
7266.092000000001,5.376991972564694
7266.0960000000005,5.463682170353194
7266.1,5.556310382244234
7266.104,5.6383607552481605
7266.108,5.718680209161464
7266.112,5.698305849032304
7266.116,5.631509200514459
7266.12,5.583500236292708
7266.124,5.552620158905207
7266.128,5.533423785379384
7266.1320000000005,5.5292888119962385
7266.136,5.536849562746234
7266.14,5.516475202617073
7266.144,5.499466518497449
7266.148,5.489381510740301
7266.152,5.462948933793974
7266.156,5.450892601516954
7266.16,5.448151979623474
7266.164,5.4479115741942215
7266.168000000001,5.447118236277689
7266.1720000000005,5.443872762982777
7266.176,5.443776600811076
7266.18,5.443331850766959
7266.184,5.441288404618311
7266.188,5.442478411493112
7266.192,5.4405671883305535
7266.196,5.440218600458136
7266.2,5.438740107068233
7266.204,5.438667985439457
7266.2080000000005,5.4373096947641795
7266.212,5.4341123025551195
7266.216,5.4290157074549645
7266.22,5.424664369185491
7266.224,5.420613537702584
7266.228,5.417788773908866
7266.232,5.414651483057119
7266.236,5.408485083796789
7266.24,5.400707968160466
7266.244000000001,5.393772271526528
7266.2480000000005,5.386295662676771
7266.252,5.380670175632259
7266.256,5.375333175102851
7266.26,5.370765471947051
7266.264,5.3636614915126355
7266.268,5.358432673426391
7266.272,5.354802551444676
7266.276,5.351605159235616
7266.28,5.348203422411692
7266.284000000001,5.351232530820274
7266.2880000000005,5.3547304298159
7266.292,5.35628104483458
7266.296,5.360175612788472
7266.3,5.367640201366767
7266.304,5.373530134383456
7266.308,5.38167987843512
7266.312,5.391548521305941
7266.316,5.400311299202199
7266.32,5.410925198903703
7266.3240000000005,5.420072625486766
7266.328,5.427561254607985
7266.332,5.436564437933496
7266.336,5.444293472483969
7266.34,5.450123304143347
7266.344,5.455808892545171
7266.348,5.460124170000255
7266.352,5.464463487998265
7266.356,5.467444515320998
7266.360000000001,5.474103745711296
7266.3640000000005,5.477781948778861
7266.368,5.482782381707316
7266.372,5.484224814282832
7266.376,5.484633503512562
7266.38,5.484140672382593
7266.384,5.484369057540383
7266.388,5.485907652287601
7266.392,5.480919239630608
7266.396,5.476315475660421
7266.400000000001,5.481279847774487
7266.404,5.487025537533625
7266.408,5.488023220065023
7266.412,5.483563699352387
7266.416,5.489453632369076
7266.42,5.504370789254203
7266.424,5.5092510194680315
7266.428,5.509960215484327
7266.432,5.50791676933568
7266.436000000001,5.5026879512494355
7266.4400000000005,5.501425822745858
7266.444,5.503060579664777
7266.448,5.505632917757779
7266.452,5.5006685456437125
7266.456,5.499767025284015
7266.46,5.503457248623044
7266.464,5.512268107605152
7266.468,5.523434939793937
7266.472,5.533339643479146
7266.476000000001,5.5393978602963125
7266.4800000000005,5.542366867347582
7266.484,5.545468097384941
7266.488,5.543677076937009
7266.492,5.542979901192177
7266.496,5.546886489417532
7266.5,5.549723273482712
7266.504,5.551466212844795
7266.508,5.55108156415799
7266.512,5.551237827687005
7266.5160000000005,5.5489299355661785
7266.52,5.536344711344804
7266.524,5.513193668507775
7266.528,5.486460584774882
7266.532,5.46457167044143
7266.536,5.493612646295148
7266.54,5.590123405868619
7266.544,5.681092820297815
7266.548,5.753611118031873
7266.552000000001,5.82260747622738
7266.5560000000005,5.799107845517936
7266.56,5.734018075547783
7266.564,5.691394192941291
7266.568,5.657917736917862
7266.572,5.640344100039495
7266.576,5.638853586378128
7266.58,5.641666329900384
7266.584,5.617649827518045
7266.588,5.6081177522481775
7266.592000000001,5.585772067599145
7266.5960000000005,5.563270119421098
7266.6,5.5559137132859675
7266.604,5.553870267137321
7266.608,5.552271571032791
7266.612,5.552271571032791
7266.616,5.553906327951708
7266.62,5.553197131935414
7266.624,5.550372368141694
7266.628,5.550744996557037
7266.6320000000005,5.550216104612681
7266.636,5.5523196521186415
7266.64,5.551093584429453
7266.644,5.547812050320155
7266.648,5.545468097384941
7266.652,5.542294745718806
7266.656,5.541633630788361
7266.66,5.53829199532175
7266.664,5.533507927279623
7266.668000000001,5.530382656699339
7266.6720000000005,5.526932838789563
7266.676,5.520141385413177
7266.68,5.511030019644501
7266.684,5.50362553242352
7266.688,5.493203957065418
7266.692,5.483659861524088
7266.696,5.476976590590865
7266.7,5.4705217048154315
7266.704,5.46284075135081
7266.7080000000005,5.454077973454552
7266.712,5.4469980335630614
7266.716,5.443175587237945
7266.72,5.439220917926738
7266.724,5.435999485174753
7266.728,5.435903323003052
7266.732,5.433895937668792
7266.736,5.436143728432304
7266.74,5.441901438462906
7266.744000000001,5.449017439168784
7266.7480000000005,5.456313743946601
7266.752,5.4644875285411905
7266.756,5.472709394221631
7266.76,5.482217428948572
7266.764,5.4931318354366425
7266.768,5.502122998490691
7266.772,5.509803951955313
7266.776,5.519083601524465
7266.78,5.526367886030819
7266.784000000001,5.531368318959274
7266.7880000000005,5.536224508630177
7266.792,5.54199423893224
7266.796,5.545768604171506
7266.8,5.548184678735496
7266.804,5.550276205969993
7266.808,5.552331672390103
7266.812,5.551165706058229
7266.816,5.550612773570948
7266.82,5.552692280533983
7266.8240000000005,5.553786125237082
7266.828,5.553641881979531
7266.832,5.5522595507613275
7266.836,5.550817118185813
7266.84,5.544602637839632
7266.844,5.5391694751385225
7266.848,5.538712704822942
7266.852,5.5370178465467115
7266.856,5.533015096149655
7266.860000000001,5.52888012276651
7266.8640000000005,5.534481569268095
7266.868,5.544061725623813
7266.872,5.544903144626198
7266.876,5.543112124178265
7266.88,5.538832907537568
7266.884,5.533507927279623
7266.888,5.531031751358321
