7300.0,16.965759730230936
7300.004,16.966012155931647
7300.008,16.963800425982523
7300.012,16.959989999928872
7300.0160000000005,16.953102384380784
7300.02,16.94855872176791
7300.024,16.939711801971413
7300.028,16.937608254465452
7300.032,16.942608687393907
7300.036,16.949412161041757
7300.04,16.9555424994877
7300.044,16.958872114682848
7300.048,16.955987249531812
7300.052000000001,16.949412161041757
7300.0560000000005,16.946707599962664
7300.06,16.947536998693586
7300.064,16.95121520176115
7300.068,16.951696012619657
7300.072,16.954124107455108
7300.076,16.958006655137538
7300.08,16.961240108160986
7300.084,16.96680549384818
7300.088,16.974534528398657
7300.092000000001,16.982708312993246
7300.0960000000005,16.98345356982393
7300.1,16.985484995701114
7300.104,16.987251975606117
7300.108,16.98847804329531
7300.112,16.98998057722814
7300.116,16.99094219894515
7300.12,16.992456753149437
7300.124,16.99268513830723
7300.128,16.985521056515502
7300.1320000000005,16.962466175850174
7300.136,16.933317017553293
7300.14,16.8836492558697
7300.144,16.85044926608991
7300.148,16.9098654679297
7300.152,17.02292814130721
7300.156,17.119499002237994
7300.16,17.24246637930072
7300.164,17.31979278561983
7300.168000000001,17.303529358330888
7300.1720000000005,17.28152024128281
7300.176,17.260256381065414
7300.18,17.233859864933475
7300.184,17.229400344220835
7300.188,17.22919599960597
7300.192,17.206237281112344
7300.196,17.13218038863107
7300.2,17.069650936482464
7300.204,17.013119599793704
7300.2080000000005,16.982431846749602
7300.212,16.97231077817807
7300.216,16.96620448027505
7300.22,16.958547567353357
7300.224,16.954580877770688
7300.228,16.951155100403838
7300.232,16.95084257334581
7300.236,16.947308613535796
7300.24,16.944255464584288
7300.244000000001,16.940228673644306
7300.2480000000005,16.934386821713467
7300.252,16.929037800912596
7300.256,16.925828388432073
7300.26,16.920130779758782
7300.264,16.912101238421748
7300.268,16.905201602602194
7300.272,16.896282561176925
7300.276,16.889178580742506
7300.28,16.88013933660261
7300.284000000001,16.87209777499411
7300.2880000000005,16.861039125248485
7300.292,16.85099017830573
7300.296,16.837791920239752
7300.3,16.820338486076015
7300.304,16.805216984576024
7300.308,16.790864780449642
7300.312,16.77952966446038
7300.316,16.768915764758876
7300.32,16.75889085835904
7300.3240000000005,16.753205269957217
7300.328,16.748313019471926
7300.332,16.74583684355062
7300.336,16.74869766815873
7300.34,16.752003242810954
7300.344,16.755873770221918
7300.348,16.764925034633283
7300.352,16.77420468420243
7300.356,16.787210617925
7300.360000000001,16.801166153093117
7300.3640000000005,16.816371796493343
7300.368,16.831661581793814
7300.372,16.846266211620915
7300.376,16.86252963890985
7300.38,16.878877208099034
7300.384,16.89113788499092
7300.388,16.90179986577827
7300.392,16.912101238421748
7300.396,16.918580164740106
7300.400000000001,16.920431286545348
7300.404,16.91868834718327
7300.408,16.914998123844242
7300.412,16.91231760330807
7300.416,16.909384657071193
7300.42,16.907317170379617
7300.424,16.897436507237337
7300.428,16.884851283015962
7300.432,16.882206823294183
7300.436000000001,16.877254471451575
7300.4400000000005,16.874441727929323
7300.444,16.880523985289415
7300.448,16.88913049965666
7300.452,16.898890960084312
7300.456,16.906824339249653
7300.46,16.906619994634788
7300.464,16.902220575279465
7300.468,16.904107757899094
7300.472,16.906319487848222
7300.476000000001,16.909492839514357
7300.4800000000005,16.90811050829615
7300.484,16.916320353705128
7300.488,16.922450692151074
7300.492,16.925371618116493
7300.496,16.926333239833504
7300.5,16.930263868601784
7300.504,16.93453106497102
7300.508,16.94043301825917
7300.512,16.94189949137761
7300.5160000000005,16.9476932622226
7300.52,16.950902674703123
7300.524,16.950325701672917
7300.528,16.951467627461867
7300.532,16.950289640858525
7300.536,16.94549355254494
7300.54,16.93901462622658
7300.544,16.921501090705526
7300.548,16.888709790155467
7300.552000000001,16.828704595014003
7300.5560000000005,16.800480997619747
7300.56,16.869044626042598
7300.564,16.964521642270284
7300.568,17.05784702990616
7300.572,17.20023916565249
7300.576,17.26731228041398
7300.58,17.243776588890146
7300.584,17.230494188923934
7300.588,17.20999962608015
7300.592000000001,17.19489014485162
7300.5960000000005,17.191680732371097
7300.6,17.18196835302929
7300.604,17.136675970158098
7300.608,17.067895976848916
7300.612,17.01095595093043
7300.616,16.961155966260748
7300.62,16.937536132836676
7300.624,16.927787692680482
7300.628,16.92426575314193
7300.6320000000005,16.922282408350597
7300.636,16.920827955503615
7300.64,16.91906097559861
7300.644,16.91718581325044
7300.648,16.915611157688836
7300.652,16.91384417778383
7300.656,16.908194650196393
7300.66,16.903554825411817
7300.664,16.899672277729387
7300.668000000001,16.89618639900522
7300.6720000000005,16.894467500186067
7300.676,16.893553959554907
7300.68,16.888337161740125
7300.684,16.8781800323542
7300.688,16.872085754722647
7300.692,16.865282281074798
7300.696,16.856038692320034
7300.7,16.84418670465788
7300.704,16.834005534729023
7300.7080000000005,16.822345871410274
7300.712,16.810121255332778
7300.716,16.79889432178668
7300.72,16.78874921267222
7300.724,16.781525029523173
7300.728,16.773519528729064
7300.732,16.766247264494172
7300.736,16.764925034633283
7300.74,16.768266670099894
7300.744000000001,16.768218589014044
7300.7480000000005,16.771295778508474
7300.752,16.779950373961572
7300.756,16.785599901549006
7300.76,16.79437469971673
7300.764,16.803570207385643
7300.768,16.813715316500105
7300.772,16.825639425791035
7300.776,16.839246373086738
7300.78,16.853418273141177
7300.784000000001,16.868744119256032
7300.7880000000005,16.88388966129895
7300.792,16.898518331668974
7300.796,16.911872853263958
7300.8,16.923219989524682
7300.804,16.93216307149288
7300.808,16.939988268215053
7300.812,16.945169005215444
7300.816,16.947272552721405
7300.82,16.94741679597896
7300.8240000000005,16.943882836168946
7300.828,16.937055321978168
7300.832,16.930912963260766
7300.836,16.92635728037643
7300.84,16.92408544906999
7300.844,16.91521448873057
7300.848,16.908158589382005
7300.852,16.913735995340666
7300.856,16.92574424653183
7300.860000000001,16.9338939905835
7300.8640000000005,16.93778855853739
7300.868,16.936033598903848
7300.872,16.933064591852578
7300.876,16.933196814838666
7300.88,16.935156119087072
7300.884,16.936742794920143
7300.888,16.940408977716245
7300.892,16.94601042421783
7300.896,16.95472512102824
7300.900000000001,16.96291092589429
7300.904,16.96797146018006
7300.908,16.977299190835062
7300.912,16.983970441496822
7300.916,16.99094219894515
7300.92,16.996639807618436
7300.924,17.001351754031788
7300.928,17.002024889233695
7300.932,17.001243571588624
7300.936000000001,17.001483977017877
7300.9400000000005,17.003984193482104
7300.944,17.005859355830275
7300.948,17.001291652674475
7300.952,16.980111934357318
7300.956,16.950097316515127
7300.96,16.90356684568328
7300.964,16.875824059147526
7300.968,16.947044167563618
7300.972,17.06348453722213
7300.976000000001,17.15674982350069
7300.9800000000005,17.270798159138142
7300.984,17.334289233003762
7300.988,17.310224649535574
7300.992,17.28704956615562
7300.996,17.261867097441407
7301.0,17.22485668160796
7301.004,17.213245099375058
7301.008,17.214242781906457
7301.012,17.207307085272518
7301.0160000000005,17.151100295913256
7301.02,17.096708567544848
7301.024,17.046127265230094
7301.028,17.007998964150623
7301.032,16.997637490149835
7301.036,16.99286544237917
7301.04,16.98912713795429
7301.044,16.989463705555245
7301.048,16.988081374337042
7301.052000000001,16.989271381211843
7301.0560000000005,16.989379563655007
7301.06,16.990978259759537
7301.064,16.991951901748006
7301.068,16.986230252531797
7301.072,16.9832372049376
7301.076,16.981025474988478
7301.08,16.977443434092613
7301.084,16.969870663071156
7301.088,16.965170736929267
7301.092000000001,16.960651114859317
7301.0960000000005,16.952729755965443
7301.1,16.944327586213063
7301.104,16.935648950217043
7301.108,16.924590300471422
7301.112,16.912173360050524
7301.116,16.895958013847434
7301.12,16.88183419487884
7301.124,16.87423738331446
7301.128,16.867265625866132
7301.1320000000005,16.85894759801399
7301.136,16.848646225370516
7301.14,16.839174251457962
7301.144,16.832779467039835
7301.148,16.82886085854302
7301.152,16.82919742614397
7301.156,16.834642609116546
7301.16,16.845256508818053
7301.164,16.848465921298576
7301.168000000001,16.85784173303943
7301.1720000000005,16.862169030765976
7301.176,16.86494571347384
7301.18,16.87314353861136
7301.184,16.883625215326774
7301.188,16.899479953385985
7301.192,16.914000441312844
7301.196,16.925876469517924
7301.2,16.93403823384105
7301.204,16.94175524812006
7301.2080000000005,16.94958044484223
7301.212,16.953583195239286
7301.216,16.958956256583086
7301.22,16.95966545259938
7301.224,16.960098182372032
7301.228,16.96728630470669
7301.232,16.970111068500405
7301.236,16.963487898924498
7301.24,16.96015828372935
7301.244000000001,16.951359445018703
7301.2480000000005,16.940589281788185
7301.252,16.931646199819983
7301.256,16.929085881998446
7301.26,16.93207892959264
7301.264,16.94185141029176
7301.268,16.946106586389533
7301.272,16.950361762487304
7301.276,16.9500732759722
7301.28,16.944868498428878
7301.284000000001,16.94418334295551
7301.2880000000005,16.947536998693586
7301.292,16.947428816250422
7301.296,16.944832437614494
7301.3,16.949724688099785
7301.304,16.95645604011886
7301.308,16.958703830882367
7301.312,16.963968709783003
7301.316,16.97442634595549
7301.32,16.98341750900954
7301.3240000000005,16.991254726003174
7301.328,16.996158996759927
7301.332,16.99935638896899
7301.336,17.00345530153775
7301.34,17.005811274744424
7301.344,17.00821532903695
7301.348,17.006051680173677
7301.352,17.004873693570335
7301.356,17.004633288141086
7301.360000000001,16.985677320044516
7301.3640000000005,16.95604735088913
7301.368,16.904107757899094
7301.372,16.856459401821226
7301.376,16.915623177960295
7301.38,17.057330158233267
7301.384,17.180610062354013
7301.388,17.311017987452107
7301.392,17.414608686917067
7301.396,17.414656768002917
7301.400000000001,17.38786358291271
7301.404,17.351021450879745
7301.408,17.298252459158793
7301.412,17.27823870717351
7301.416,17.26481206394975
7301.42,17.237297662571788
7301.424,17.158552864220084
7301.428,17.086010525943102
7301.432,17.02571684428654
7301.436000000001,16.993214030251586
7301.4400000000005,16.98007587354293
7301.444,16.971277034832283
7301.448,16.968416210224174
7301.452,16.962742642093815
7301.456,16.955157850800894
7301.46,16.949436201584682
7301.464,16.945481532273472
7301.468,16.944243444312825
7301.472,16.941310498075943
7301.476000000001,16.93677885573453
7301.4800000000005,16.93405025411251
7301.484,16.929482550956713
7301.488,16.923736861197572
7301.492,16.91653671859146
7301.496,16.91010587335895
7301.5,16.90124693329099
7301.504,16.89315729059664
7301.508,16.8824592489949
7301.512,16.869429274729406
7301.5160000000005,16.856038692320034
7301.52,16.844090542486178
7301.524,16.830856223605817
7301.528,16.814977445003677
7301.532,16.79914674748739
7301.536,16.782330387711173
7301.54,16.76877152150132
7301.544,16.75875863537295
7301.548,16.748902012773595
7301.552000000001,16.740235397049034
7301.5560000000005,16.73451374783282
7301.56,16.733215558514857
7301.564,16.73404495724578
7301.568,16.73709810619729
7301.572,16.742194701297446
7301.576,16.747579782912705
7301.58,16.75666710813845
7301.584,16.766812217252916
7301.588,16.779277238759665
7301.592000000001,16.791561956194474
7301.5960000000005,16.808330234884846
7301.6,16.824725885159875
7301.604,16.84415064384349
7301.608,16.862169030765976
7301.612,16.877506897152294
7301.616,16.889923837573193
7301.62,16.900814203518337
7301.624,16.908435055625645
7301.628,16.912173360050524
7301.6320000000005,16.91289457633828
7301.636,16.914180745384783
7301.64,16.916464596962683
7301.644,16.915010144115705
7301.648,16.909312535442414
7301.652,16.90087430487565
7301.656,16.89165475666381
7301.66,16.885632600661033
7301.664,16.876376991634807
7301.668000000001,16.870102409931313
7301.6720000000005,16.875331228017558
7301.676,16.88438249242892
7301.68,16.89640276389155
7301.684,16.904143818713486
7301.688,16.899251568228195
7301.692,16.894371338014366
7301.696,16.892159608065242
7301.7,16.894984371858957
7301.704,16.900309352116906
7301.7080000000005,16.90229269690824
7301.712,16.910009711187246
7301.716,16.918387840396704
7301.72,16.91841188093963
7301.724,16.918844610712284
7301.728,16.924506158571184
7301.732,16.930985084889542
7301.736,16.939940187129203
7301.74,16.944652133542554
7301.744000000001,16.94549355254494
7301.7480000000005,16.945108903858134
7301.752,16.949532363756383
7301.756,16.953426931710275
7301.76,16.95180419506282
7301.764,16.94833033661012
7301.768,16.944339606484526
7301.772,16.92627313847619
7301.776,16.89302506761055
7301.78,16.833717048213924
7301.784000000001,16.802620605940096
7301.7880000000005,16.869657659887196
7301.792,16.966529027604544
7301.796,17.063700902108458
7301.8,17.203821206548355
7301.804,17.279536896491475
7301.808,17.26435529363417
7301.812,17.25055602199507
7301.816,17.226695783141743
7301.82,17.20265524021648
7301.8240000000005,17.19648884095615
7301.828,17.191680732371097
7301.832,17.147217748230823
7301.836,17.074386923438738
7301.84,17.014790417527006
7301.844,16.964245176026644
7301.848,16.942512525222206
7301.852,16.93056437538835
7301.856,16.924542219385568
7301.860000000001,16.919205218856163
7301.8640000000005,16.912497907380015
7301.868,16.907196967664994
7301.872,16.907208987936453
7301.876,16.90607908241897
7301.88,16.904324122785425
7301.884,16.902100372564835
7301.888,16.895381040817227
7301.892,16.89074121603265
7301.896,16.890068080830744
7301.900000000001,16.888553526626453
7301.904,16.884045924827966
7301.908,16.876328910548956
7301.912,16.872806971010405
7301.916,16.868022902968278
7301.92,16.85867113177035
7301.924,16.85094209721988
7301.928,16.841121535434908
7301.932,16.8304114735617
7301.936000000001,16.82021828336139
7301.9400000000005,16.807476795611
7301.944,16.79798078115552
7301.948,16.788580928871742
7301.952,16.779469563103067
7301.956,16.770382237877314
7301.96,16.76345856151484
7301.964,16.757989337999344
7301.968,16.755777608050217
7301.972,16.755344878277565
7301.976000000001,16.757556608226686
7301.9800000000005,16.759696216547038
7301.984,16.763326338528753
7301.988,16.77021395407684
7301.992,16.781248563279537
7301.996,16.794182375373328
7302.0,16.807380633439298
7302.004,16.82113182399255
7302.008,16.83233471699572
7302.012,16.84578540076241
7302.0160000000005,16.859560631858585
7302.02,16.874345565757622
7302.024,16.888192918482574
7302.028,16.899636216915
7302.032,16.90872354214075
7302.036,16.916200150990505
7302.04,16.923772922011963
7302.044,16.928544969782624
7302.048,16.92937436851355
7302.052000000001,16.926297179019116
7302.0560000000005,16.923784942283426
7302.06,16.920948158218245
7302.064,16.91668096184901
7302.068,16.916116009090267
7302.072,16.905694433732165
7302.076,16.89886691954139
7302.08,16.90726908929377
7302.084,16.919734110800515
7302.088,16.930311949687635
7302.092000000001,16.938221288310046
7302.0960000000005,16.933593483796933
7302.1,16.926020712775475
7302.104,16.92426575314193
7302.108,16.927715571051706
7302.112,16.93239145665067
7302.116,16.93609370026116
7302.12,16.944075160512345
7302.124,16.950986816603358
7302.128,16.952405208635952
7302.1320000000005,16.957345540207093
7302.136,16.965771750502398
7302.14,16.972430980892696
7302.144,16.976734238076315
7302.148,16.981602448018684
7302.152,16.986530759318363
7302.156,16.992024023376786
7302.16,16.996050814316767
7302.164,17.001291652674475
7302.168000000001,17.003202875837033
7302.1720000000005,17.002265294662944
7302.176,16.995185354771458
7302.18,16.97797232603697
7302.184,16.94855872176791
7302.188,16.905285744502436
7302.192,16.8644769228868
7302.196,16.909985670644325
7302.2,17.02712321604767
7302.204,17.13240877378886
7302.2080000000005,17.247094183813832
7302.212,17.3376549090133
7302.216,17.330827394822524
7302.22,17.30417845298987
7302.224,17.280498518208486
7302.228,17.241865365727588
7302.232,17.220048573022908
7302.236,17.216875221356773
7302.24,17.213822072405264
7302.244000000001,17.164587040494325
7302.2480000000005,17.101552736944285
7302.252,17.052810536163317
7302.256,17.01382879581
7302.26,16.99898376055365
7302.264,16.990329165100555
7302.268,16.982636191364467
7302.272,16.980628806030207
7302.276,16.980472542501197
7302.28,16.977864143593806
7302.284000000001,16.973897454011137
7302.2880000000005,16.971132791574732
7302.292,16.972274717363682
7302.296,16.972623305236095
7302.3,16.971012588860102
7302.304,16.965843872131174
7302.308,16.96071121621663
7302.312,16.957345540207093
7302.316,16.9522609653784
7302.32,16.946346991818785
7302.3240000000005,16.93870209916855
7302.328,16.93405025411251
7302.332,16.92683809123493
7302.336,16.917281975422142
7302.34,16.906163224319208
7302.344,16.898830858727003
7302.348,16.889154540199584
7302.352,16.87749487688083
7302.356,16.868732098984573
7302.360000000001,16.86237337538084
7302.3640000000005,16.853490394769956
7302.368,16.84957178627314
7302.372,16.844859839859787
7302.376,16.84231154230971
7302.38,16.842239420680933
7302.384,16.847540360395953
7302.388,16.853538475855807
7302.392,16.858334564169393
7302.396,16.861892564522336
7302.400000000001,16.86601551763402
7302.404,16.87447778874371
7302.408,16.885223911431304
7302.412,16.895501243531854
7302.416,16.90823071101078
7302.42,16.9203832054595
7302.424,16.930720638917364
7302.428,16.941695146762747
7302.432,16.95168399234819
7302.436000000001,16.958319182195567
7302.4400000000005,16.965952054574338
7302.444,16.972467041707084
7302.448,16.976421711018286
7302.452,16.982528008921307
7302.456,16.98730005669197
7302.46,16.982876596793723
7302.464,16.976505852918528
7302.468,16.970243291486497
7302.472,16.967069939820362
7302.476000000001,16.96353598001035
7302.4800000000005,16.95938898635574
7302.484,16.9500732759722
7302.488,16.953426931710275
7302.492,16.959797675585467
7302.496,16.96459376389906
7302.5,16.969498034655814
7302.504,16.97198623084858
7302.508,16.96938985221265
7302.512,16.961372331147075
7302.5160000000005,16.96363214218205
7302.52,16.966432865432843
7302.524,16.967550750678868
7302.528,16.969966825242857
7302.532,16.97231077817807
7302.536,16.970291372572348
7302.54,16.970724102345
7302.544,16.979186373454695
7302.548,16.987552482392683
7302.552000000001,16.99454828038394
7302.5560000000005,16.99743314553497
7302.56,16.998238503722966
7302.564,16.994848787170504
7302.568,16.994908888527817
7302.572,16.998815476753173
7302.576,17.0002218485143
7302.58,17.001015186430834
7302.584,16.99898376055365
7302.588,16.98492004294237
7302.592000000001,16.952633593793742
7302.5960000000005,16.9138201372409
7302.6,16.866183801434495
7302.604,16.86040205086097
7302.608,16.952080661306457
7302.612,17.067367084904564
7302.616,17.157891749289643
7302.62,17.273286355330907
7302.624,17.318783082816967
7302.628,17.30016368232135
7302.6320000000005,17.28375601177486
7302.636,17.243812649704534
7302.64,17.210985288340087
7302.644,17.206994558214493
7302.648,17.213040754760193
7302.652,17.185454231753457
7302.656,17.11449856930954
7302.66,17.058303800221736
7302.664,17.012398383505946
7302.668000000001,16.99090613813076
7302.6720000000005,16.980388400600958
7302.676,16.97514756224325
7302.68,16.972719467407796
7302.684,16.967827216922508
7302.688,16.967670953393494
7302.692,16.965940034302875
7302.696,16.96199738526313
7302.7,16.959953939114484
7302.704,16.957177256406617
7302.7080000000005,16.952501370807653
7302.712,16.946587397248038
7302.716,16.943666471282615
7302.72,16.93978392360019
7302.724,16.934867632571972
7302.728,16.92901376036967
7302.732,16.921897759663793
7302.736,16.913699934526278
7302.74,16.904276041699575
7302.744000000001,16.89361406091222
7302.7480000000005,16.880019133887984
7302.752,16.866736733921773
7302.756,16.853490394769956
7302.76,16.84002769073181
7302.764,16.826673169136818
7302.768,16.814496634145176
7302.772,16.80602234276402
7302.776,16.799086646130082
7302.78,16.789626692488987
7302.784000000001,16.783760800015227
7302.7880000000005,16.781549070066102
7302.792,16.781332705179775
7302.796,16.78427767168812
7302.8,16.78944638841705
7302.804,16.795204098447652
7302.808,16.800480997619747
7302.812,16.80670749823739
7302.816,16.815001485546606
7302.82,16.82643276370757
7302.8240000000005,16.83875354195677
7302.828,16.852072002737366
7302.832,16.865546727046972
7302.836,16.878420437783454
7302.84,16.892664459466673
7302.844,16.905213622873656
7302.848,16.916572779405847
7302.852,16.923436354411006
7302.856,16.92896567928382
7302.860000000001,16.932102970135567
7302.8640000000005,16.933268936467442
7302.868,16.934338740627616
7302.872,16.931417814662197
7302.876,16.92622505739034
7302.88,16.92052744871705
7302.884,16.913447508825563
7302.888,16.90859131915466
7302.892,16.900850264332725
7302.896,16.8940708312278
7302.900000000001,16.89219566887963
7302.904,16.898854899269928
7302.908,16.909408697614115
7302.912,16.91764258356602
7302.916,16.919565827000042
7302.92,16.91668096184901
7302.924,16.917149752436053
7302.928,16.92020290138756
7302.932,16.922582915137163
7302.936000000001,16.921392908262362
7302.9400000000005,16.92416959097023
7302.944,16.93138175384781
7302.948,16.939158869484128
7302.952,16.94751295815066
7302.956,16.955951188717428
7302.96,16.963247493495246
7302.964,16.9682479264237
7302.968,16.970651980716227
7302.972,16.97459462975597
7302.976000000001,16.97769585979333
7302.9800000000005,16.976818379976557
7302.984,16.97449846758427
7302.988,16.976385650203902
7302.992,16.978429096352546
7302.996,16.976842420519482
7303.0,16.965447203172907
7303.004,16.938353511296135
7303.008,16.889334844271524
7303.012,16.82621639882124
7303.0160000000005,16.8484899618415
7303.02,16.940997971017914
7303.024,17.033277595036537
7303.028,17.173073352146943
7303.032,17.305981493709265
7303.036,17.325887063251383
7303.04,17.308024939857912
7303.044,17.291376863882167
7303.048,17.264331253091246
7303.052000000001,17.257335455099994
7303.0560000000005,17.251721988326945
7303.06,17.219988471665598
7303.064,17.135666267355237
7303.068,17.060347246370387
7303.072,16.99936840924045
7303.076,16.967274284435227
7303.08,16.953751479039767
7303.084,16.941166254818388
7303.088,16.931718321448763
7303.092000000001,16.930636497017126
7303.0960000000005,16.92568414517452
7303.1,16.92020290138756
7303.104,16.917161772707516
7303.108,16.91764258356602
7303.112,16.918880671526672
7303.116,16.91837582012524
7303.12,16.91129588023375
7303.124,16.901811886049735
7303.128,16.894191033942423
7303.1320000000005,16.890356567345847
7303.136,16.88653412102073
7303.14,16.879345998686077
7303.144,16.869561497715495
7303.148,16.858623050684496
7303.152,16.84865824564198
7303.156,16.83533978486138
7303.16,16.823439716113374
7303.164,16.813366728627685
7303.168000000001,16.804712133174593
7303.1720000000005,16.79537238224813
7303.176,16.787138496296226
7303.18,16.776849143924213
7303.184,16.767449291640435
7303.188,16.759648135461187
7303.192,16.75154647249537
7303.196,16.751786877924626
7303.2,16.749755452047438
7303.204,16.752664357741395
7303.2080000000005,16.755284776920252
7303.212,16.755044371491
7303.216,16.759816419261664
7303.22,16.764179777802596
7303.224,16.77276225162692
7303.228,16.781993820110216
7303.232,16.794795409217922
7303.236,16.80645507253667
7303.24,16.816167451878478
7303.244000000001,16.830519656004864
7303.2480000000005,16.84666288057918
7303.252,16.862854186239346
7303.256,16.874405667114935
7303.26,16.883781478855788
7303.264,16.890260405174146
7303.268,16.897184081536622
7303.272,16.901030568404664
7303.276,16.902316737451166
7303.28,16.90297785238161
7303.284000000001,16.90255714288042
7303.2880000000005,16.898494291126045
7303.292,16.892676479738135
7303.296,16.885836945275898
7303.3,16.882495309809286
7303.304,16.875511532089497
7303.308,16.8681431056829
7303.312,16.871604943864142
7303.316,16.883853600484564
7303.32,16.88887807395594
7303.3240000000005,16.897051858550533
7303.328,16.90041753456007
7303.332,16.89736438560856
7303.336,16.900153088587892
7303.34,16.905478068845838
7303.344,16.91019001525919
7303.348,16.91169254919202
7303.352,16.916200150990505
7303.356,16.92380898282635
7303.360000000001,16.928076179195585
7303.3640000000005,16.93235539583628
7303.368,16.941586964319583
7303.372,16.947909627108928
7303.376,16.956311796861307
7303.38,16.962478196121637
7303.384,16.96673337221941
7303.388,16.96788731827982
7303.392,16.968271966966626
7303.396,16.970375514472586
7303.400000000001,16.97359694722457
7303.404,16.9750033189857
7303.408,16.973212298537767
7303.412,16.963163351595007
7303.416,16.936838957091844
7303.42,16.900213189945205
7303.424,16.844943981760025
7303.428,16.847708644196427
7303.432,16.939459376270694
7303.436000000001,17.03498447358423
7303.4400000000005,17.141339835485596
7303.444,17.27476484872081
7303.448,17.312436379484698
7303.452,17.2897901880491
7303.456,17.27558222718027
7303.46,17.246709535127028
7303.464,17.21764451873038
7303.468,17.212319538472435
7303.472,17.211862768156855
7303.476000000001,17.17664337277135
7303.4800000000005,17.104389521009466
7303.484,17.048903947937962
7303.488,17.00218115276271
7303.492,16.980688907387524
7303.496,16.97473887301352
7303.5,16.9705317780016
7303.504,16.96678145330526
7303.508,16.96413699358348
7303.512,16.962562338021876
7303.5160000000005,16.962297892049694
7303.52,16.959893837757168
7303.524,16.960326567529826
7303.528,16.957766249708285
7303.532,16.955518458944773
7303.536,16.95340289116735
7303.54,16.948402458238895
7303.544,16.94509688358667
7303.548,16.940084430386754
7303.552000000001,16.935192179901463
7303.5560000000005,16.92896567928382
7303.56,16.92165735423454
7303.564,16.913447508825563
7303.568,16.904083717356173
7303.572,16.89369820281246
7303.576,16.882675613881222
7303.58,16.8713284776205
7303.584,16.860870841448012
7303.588,16.848465921298576
7303.592000000001,16.837876062139994
7303.5960000000005,16.832791487311297
7303.6,16.82752660841067
7303.604,16.821396269964726
7303.608,16.816876647894773
7303.612,16.81416006654422
7303.616,16.81507360717538
7303.62,16.81821089802713
7303.624,16.822369911953196
7303.628,16.82835600714159
7303.6320000000005,16.835147460517977
7303.636,16.84487186013125
7303.64,16.857036374851432
7303.644,16.86966968015866
7303.648,16.879802769001657
7303.652,16.89045272951755
7303.656,16.90576655536094
7303.66,16.9192893607564
7303.664,16.92927820634185
7303.668000000001,16.93969978169995
7303.6720000000005,16.948751046111312
7303.676,16.95586704681719
7303.68,16.959773635042545
7303.684,16.964798108513925
7303.688,16.96925762922656
7303.692,16.971060669945956
7303.696,16.97094046723133
7303.7,16.966168419460665
7303.704,16.96033858780129
7303.7080000000005,16.95422026962681
7303.712,16.953487033067585
7303.716,16.949400140770294
7303.72,16.945205066029835
7303.724,16.945794059331504
7303.728,16.954340472341435
7303.732,16.96221375014946
7303.736,16.97103662940303
7303.74,16.97157754161885
7303.744000000001,16.97057985908745
7303.7480000000005,16.97176986596225
7303.752,16.975820697445155
7303.756,16.977178988120436
7303.76,16.9750994811574
7303.764,16.981506285846983
7303.768,16.988598246009936
7303.772,16.992757259936003
7303.776,17.004164497554044
7303.78,17.013251822779793
7303.784000000001,17.01286717409299
7303.7880000000005,17.017062248833447
7303.792,17.02598129025872
7303.796,17.029815756855296
7303.8,17.030428790699894
7303.804,17.034768108697904
7303.808,17.03578983177223
7303.812,17.038410250951085
7303.816,17.035104676298857
7303.82,17.032580419291705
7303.8240000000005,17.019334080139885
7303.828,16.992757259936003
7303.832,16.956588263104944
7303.836,16.909384657071193
7303.84,16.925383638387956
7303.844,17.031450513774217
7303.848,17.14176054498679
7303.852,17.239341108720435
7303.856,17.344025652888494
7303.860000000001,17.35382217413054
7303.8640000000005,17.325045644249
7303.868,17.304070270546706
7303.872,17.266687226297922
7303.876,17.237417865286414
7303.88,17.229159938791582
7303.884,17.23287420267354
7303.888,17.198532287104797
7303.892,17.135894652513024
7303.896,17.08716447200352
7303.900000000001,17.043831393380728
7303.904,17.028000695864442
7303.908,17.022074702033365
7303.912,17.016725681232494
7303.916,17.01126847798846
7303.92,17.00867209935253
7303.924,17.006508450489257
7303.928,17.006268045060004
7303.932,17.005811274744424
7303.936000000001,16.998539010509532
7303.9400000000005,16.988502083838235
7303.944,16.985545097058424
7303.948,16.981710630461848
7303.952,16.975159582514713
7303.956,16.975724535273454
7303.96,16.974919177085457
7303.964,16.96829600750955
7303.968,16.961336270332687
7303.972,16.953475012796126
7303.976000000001,16.94439970784184
7303.9800000000005,16.935348443430478
7303.984,16.921645333963077
7303.988,16.910911231546944
7303.992,16.902052291478988
7303.996,16.889647371329552
7304.0,16.878155991811273
7304.004,16.871941511465096
7304.008,16.862517618638392
7304.012,16.852432610881245
7304.0160000000005,16.847516319853025
7304.02,16.84669894139357
7304.024,16.84479973850247
7304.028,16.843357305926958
7304.032,16.842383663938485
7304.036,16.850329063375284
7304.04,16.856832030236564
7304.044,16.863250855197613
7304.048,16.87124433572026
7304.052000000001,16.879141654071212
7304.0560000000005,16.888349182011588
7304.06,16.902581183423344
7304.064,16.91694540782119
7304.068,16.929386388785012
7304.072,16.939002605955118
7304.076,16.94504880250082
7304.08,16.955855026545727
7304.084,16.964425480098583
7304.088,16.96957015628459
7304.092000000001,16.977263130020674
7304.0960000000005,16.983477610366855
7304.1,16.983573772538556
7304.104,16.981073556074328
7304.108,16.98231164403498
7304.112,16.980184055986093
7304.116,16.975484129844205
7304.12,16.967622872307643
7304.124,16.964762047699537
7304.128,16.959533229613292
7304.1320000000005,16.95371541822538
7304.136,16.950313681401454
7304.14,16.955109769715044
7304.144,16.96331961512402
7304.148,16.972959872837052
7304.152,16.978044447665745
7304.156,16.97427008242648
7304.16,16.973296440438006
7304.164,16.97612120423172
7304.168000000001,16.980147995171706
7304.1720000000005,16.978945968025442
7304.176,16.98007587354293
7304.18,16.984715698327506
7304.184,16.98811743515143
7304.188,16.994295854683223
7304.192,17.0023133757488
7304.196,17.00734986949164
7304.2,17.013540309294896
7304.204,17.020620249186386
7304.2080000000005,17.025320175328275
7304.212,17.029166662196317
7304.216,17.02808483776468
7304.22,17.02717129713352
7304.224,17.027099175504745
7304.228,17.02803675667883
7304.232,17.028253121565157
7304.236,17.023216627822315
7304.24,17.002661963621215
7304.244000000001,16.972370879535383
7304.2480000000005,16.91736611732238
7304.252,16.872891112910644
7304.256,16.92449413829972
7304.26,17.0206803505437
7304.264,17.114726954467333
7304.268,17.25535211030866
7304.272,17.356550775752556
7304.276,17.355000160733876
7304.28,17.334721962776417
7304.284000000001,17.317917623271658
7304.2880000000005,17.3002117634072
7304.292,17.29998337824941
7304.296,17.29015079619298
7304.3,17.2520585559279
7304.304,17.172015568258235
7304.308,17.105098717025765
7304.312,17.04845919789384
7304.316,17.018684985480903
7304.32,17.007878761435993
7304.3240000000005,16.99948861195508
7304.328,16.990882097587836
7304.332,16.985533076786965
7304.336,16.981253860146268
7304.34,16.97725110974921
7304.344,16.97258724442171
7304.348,16.97142127808983
7304.352,16.971829967319565
7304.356,16.969149446783398
7304.360000000001,16.964305277383954
7304.3640000000005,16.957081094234915
7304.368,16.95211672212085
7304.372,16.94810195145233
7304.376,16.942236058978565
7304.38,16.93276408506601
7304.384,16.922138165093042
7304.388,16.910262136887965
7304.392,16.898326007325572
7304.396,16.889058378027883
7304.400000000001,16.877278511994504
7304.404,16.864813490487755
7304.408,16.85082189450525
7304.412,16.83452240640192
7304.416,16.81962929005972
7304.42,16.809279836330393
7304.424,16.800096348932943
7304.428,16.790143564161884
7304.432,16.781777455223892
7304.436000000001,16.77463741397509
7304.4400000000005,16.772401643483036
7304.444,16.77821945487095
7304.448,16.777870866998537
7304.452,16.76212431138249
7304.456,16.755765587778754
7304.46,16.78656152326602
7304.464,16.831036527677757
7304.468,16.834173818529504
7304.472,16.839450717701602
7304.476000000001,16.852035941922978
7304.4800000000005,16.863948030942446
7304.484,16.87593224159069
7304.488,16.8883131211972
7304.492,16.90256916315188
7304.496,16.917342076779455
7304.5,16.928532949511165
7304.504,16.934326720356154
7304.508,16.937151484149872
7304.512,16.938966545140726
7304.5160000000005,16.93751209229375
7304.52,16.93893048432634
7304.524,16.941779288662985
7304.528,16.938365531567595
7304.532,16.92984315910059
7304.536,16.920671691974604
7304.54,16.913195083124847
7304.544,16.908471116440033
7304.548,16.90147531844878
7304.552000000001,16.90234077799409
7304.5560000000005,16.91403650212723
7304.56,16.92111644201872
7304.564,16.925047070787
7304.568,16.937343808493274
7304.572,16.938714119440014
7304.576,16.931994787692403
7304.58,16.93010760507277
7304.584,16.934687328500033
7304.588,16.937620274736915
7304.592000000001,16.940661403416957
7304.5960000000005,16.952922080308845
7304.6,16.958307161924104
7304.604,16.95947312825598
7304.608,16.96838014940979
7304.612,16.976265447489276
7304.616,16.978501217981325
7304.62,16.984234887468997
7304.624,16.98898289469674
7304.628,16.99304574645111
7304.6320000000005,16.99340635459499
7304.636,16.996315260288945
7304.64,16.997012436033778
7304.644,16.99707253739109
7304.648,17.001147409416923
7304.652,16.998262544265888
7304.656,16.979426778883944
7304.66,16.949315998870055
7304.664,16.903699068669365
7304.668000000001,16.863887929585132
7304.6720000000005,16.91121173833351
7304.676,17.014225464768266
7304.68,17.099521311067104
7304.684,17.222260302972032
7304.688,17.325658678093593
7304.692,17.330911536722763
7304.696,17.311042027995033
7304.7,17.292554850485505
7304.704,17.264607719334887
7304.7080000000005,17.261819016355556
7304.712,17.265364996437032
7304.716,17.23913676410557
7304.72,17.168313324647745
7304.724,17.113873515193482
7304.728,17.06151321270226
7304.732,17.033686284266267
7304.736,17.021473688460233
7304.74,17.013588390380743
7304.744000000001,17.006280065331463
7304.7480000000005,16.997745672593
7304.752,16.992468773420903
7304.756,16.990749874601743
7304.76,16.99433191549761
7304.764,16.997060517119625
7304.768,17.000245889057226
7304.772,16.99880345648171
7304.776,16.996122935945543
7304.78,16.993105847808422
7304.784000000001,16.991242705731715
7304.7880000000005,16.98217942104889
7304.792,16.965519324801683
7304.796,16.95376349931123
7304.8,16.94188747110615
7304.804,16.93116538896148
7304.808,16.92338827332516
7304.812,16.91541883334543
7304.816,16.906644035177713
7304.82,16.89298900679616
7304.8240000000005,16.877134268736953
7304.828,16.863250855197613
7304.832,16.855449699018365
7304.836,16.849283299758035
7304.84,16.841530224664638
7304.844,16.833224217083956
7304.848,16.8291253045152
7304.852,16.82719004080971
7304.856,16.827406405696042
7304.860000000001,16.826745290765597
7304.8640000000005,16.829245507229825
7304.868,16.83643362956448
7304.872,16.843970339771552
7304.876,16.85236048925247
7304.88,16.86237337538084
7304.884,16.87174918712169
7304.888,16.884622897858172
7304.892,16.89712398017931
7304.896,16.910706886932083
7304.900000000001,16.923604638211486
7304.904,16.93759623419399
7304.908,16.949772769185635
7304.912,16.96025444590105
7304.916,16.96975046035653
7304.92,16.97537594740104
7304.924,16.978933947753976
7304.928,16.976842420519482
7304.932,16.979679204584663
7304.936000000001,16.98469165778458
7304.9400000000005,16.981410123675282
7304.944,16.975315846043728
7304.948,16.968416210224174
7304.952,16.962658500193577
7304.956,16.957934533508762
7304.96,16.952381168093023
7304.964,16.947861546023077
7304.968,16.94833033661012
7304.972,16.954809262928478
7304.976000000001,16.96262243937919
7304.9800000000005,16.970495717187212
7304.984,16.972803609308038
7304.988,16.969113385969006
7304.992,16.96847631158149
7304.996,16.971829967319565
7305.0,16.975363927129578
7305.004,16.97404169726869
7305.008,16.97870556259619
7305.012,16.986122070088634
7305.0160000000005,16.98894683388235
7305.02,16.992468773420903
7305.024,17.000786801273044
7305.028,17.006724815375584
7305.032,17.012614748392274
7305.036,17.01753103942049
7305.04,17.022134803390678
7305.044,17.02392582383861
7305.048,17.024899465827083
7305.052000000001,17.028072817493218
7305.0560000000005,17.02616159433066
7305.06,17.02519997261365
7305.064,17.02516391179926
7305.068,17.017374775891476
7305.072,16.994716564184415
7305.076,16.963668202996438
7305.08,16.916885306463875
7305.084,16.889719492958328
7305.088,16.955710783288175
7305.092000000001,17.077295829132694
7305.0960000000005,17.17523700101022
7305.1,17.289585843434235
7305.104,17.354399147160745
7305.108,17.336092273723157
7305.112,17.30929908863295
7305.116,17.278479112602763
7305.12,17.24127637242592
7305.124,17.225746181696195
7305.128,17.224784559979184
7305.1320000000005,17.217524316015755
7305.136,17.161509850999895
7305.14,17.10680559557346
7305.144,17.05919330030997
7305.148,17.02666644573209
7305.152,17.013684552552444
7305.156,17.00684501809021
7305.16,17.002349436563186
7305.164,17.000065584985283
7305.168000000001,16.99733698336327
7305.1720000000005,16.994355956040533
7305.176,16.991699476047295
7305.18,16.98893481361089
7305.184,16.988177536508744
7305.188,16.984307009097776
7305.192,16.982167400777428
7305.196,16.978212731466222
7305.2,16.973789271567973
7305.204,16.968392169681252
7305.2080000000005,16.95797059432315
7305.212,16.94956842457077
7305.216,16.941923531920537
7305.22,16.934278639270303
7305.224,16.923015644909817
7305.228,16.912918616881203
7305.232,16.903049974010386
7305.236,16.892772641909836
7305.24,16.88328864772582
7305.244000000001,16.870919788390772
7305.2480000000005,16.858358604712322
7305.252,16.849691988987765
7305.256,16.8425399274675
7305.26,16.82997874378904
7305.264,16.823439716113374
7305.268,16.82013414146115
7305.272,16.81693674925209
7305.276,16.812837836683332
7305.28,16.811924296052172
7305.284000000001,16.813030161026735
7305.2880000000005,16.820843337477445
7305.292,16.831565419622113
7305.296,16.837106764766382
7305.3,16.846085907548975
7305.304,16.857925874939664
7305.308,16.86908068685699
7305.312,16.88524795197423
7305.316,16.895008412401886
7305.32,16.90004490614473
7305.3240000000005,16.90809848802469
7305.328,16.915478934702747
7305.332,16.924650401828735
7305.336,16.932151051221414
7305.34,16.934759450128805
7305.344,16.937115423335484
7305.348,16.93951947762801
7305.352,16.94036089663039
7305.356,16.942224038707103
7305.360000000001,16.941562923776655
7305.3640000000005,16.939218970841445
7305.368,16.935372483973403
7305.372,16.92969891584304
7305.376,16.924193631513155
7305.38,16.916296313162206
7305.384,16.9158155023037
7305.388,16.922871401652266
7305.392,16.929999422629606
7305.396,16.9362740043331
7305.400000000001,16.938557855910997
7305.404,16.939122808669744
7305.408,16.937560173379598
7305.412,16.93716350442133
7305.416,16.940721504774274
7305.42,16.940961910203523
7305.424,16.943185660424113
7305.428,16.946887904034604
7305.432,16.95221288429255
7305.436000000001,16.955951188717428
7305.4400000000005,16.96310325023769
7305.444,16.968500352124416
7305.448,16.973236339080692
7305.452,16.975448069029817
7305.456,16.976902521876795
7305.46,16.98044850195827
7305.464,16.981434164218204
7305.468,16.98020809652902
7305.472,16.979018089654218
7305.476000000001,16.977022724591418
7305.4800000000005,16.979102231554457
7305.484,16.976986663777033
7305.488,16.963055169151843
7305.492,16.933365098639143
7305.496,16.89447952045753
7305.5,16.83912617037211
7305.504,16.84840581994126
7305.508,16.945613755259565
7305.512,17.044901197540906
7305.5160000000005,17.15719457354481
7305.52,17.28827563384481
7305.524,17.32089865059439
7305.528,17.29714659418423
7305.532,17.28215731567033
7305.536,17.24685377838458
7305.54,17.22962872937863
7305.544,17.22714053318586
7305.548,17.216670876741908
7305.552000000001,17.15693012757263
7305.5560000000005,17.08540951236997
7305.56,17.027471803920086
7305.564,16.98596580655962
7305.568,16.967598831764718
7305.572,16.957525844279033
7305.576,16.952705715422518
7305.58,16.94942418131322
7305.584,16.94447182947061
7305.588,16.940180592558455
7305.592000000001,16.937536132836676
7305.5960000000005,16.937812599080317
7305.6,16.934831571757584
7305.604,16.931285591676108
7305.608,16.92699435476395
7305.612,16.921260685276273
7305.616,16.918616225554494
7305.62,16.914877921129616
7305.624,16.90845909616857
7305.628,16.900489656188846
7305.6320000000005,16.891017682276292
7305.636,16.879886910901895
7305.64,16.86880422061335
7305.644,16.861303571220667
7305.648,16.84684318465112
7305.652,16.830147027589522
7305.656,16.820578891505264
7305.66,16.808799025471888
7305.664,16.795660868763232
7305.668000000001,16.78379686082961
7305.6720000000005,16.77159628529504
7305.676,16.75768883121278
7305.68,16.749418884446488
7305.684,16.744538654232656
7305.688,16.74116095795166
7305.692,16.738901146916685
7305.696,16.739922869991005
7305.7,16.743709255501738
7305.704,16.751822938739014
7305.7080000000005,16.75750852714084
7305.712,16.760645817992586
7305.716,16.76500917653352
7305.72,16.775478832977473
7305.724,16.791093165607432
7305.728,16.803954856072444
7305.732,16.81954514815948
7305.736,16.83602494033475
7305.74,16.851206543192056
7305.744000000001,16.864116314742922
7305.7480000000005,16.874153241414216
7305.752,16.8769900254794
7305.756,16.879862870358966
7305.76,16.88402188428504
7305.764,16.887603925180905
7305.768,16.8872192764941
7305.772,16.888337161740125
7305.776,16.88666634400682
7305.78,16.881197120491322
7305.784000000001,16.87164100467853
7305.7880000000005,16.860666496833147
7305.792,16.852528773052946
7305.796,16.847444198224252
7305.8,16.83812848784071
7305.804,16.834558467216308
7305.808,16.84080900837688
7305.812,16.85041320527552
7305.816,16.862289233480602
7305.82,16.869621599072808
7305.8240000000005,16.869453315272327
7305.828,16.86511399727432
7305.832,16.86397207148537
7305.836,16.86986200450206
7305.84,16.873984957613743
7305.844,16.874994660416604
7305.848,16.885235931702766
7305.852,16.892123547250854
7305.856,16.895008412401886
7305.860000000001,16.904300082242496
7305.8640000000005,16.914962063029854
7305.868,16.91952976618565
7305.872,16.92001057704416
7305.876,16.925275455944792
7305.88,16.929218104984535
7305.884,16.929170023898685
7305.888,16.9317063011773
7305.892,16.931441855205122
7305.896,16.92896567928382
7305.900000000001,16.927787692680482
7305.904,16.924962928886764
7305.908,16.91544287388836
7305.912,16.892219709422555
7305.916,16.849295320029498
7305.92,16.793389037456794
7305.924,16.794386719988193
7305.928,16.869453315272327
7305.932,16.9442194037699
7305.936000000001,17.03072929748646
7305.9400000000005,17.16173823615768
7305.944,17.21183872761393
7305.948,17.190142137623884
7305.952,17.17429941983613
7305.956,17.14747017393154
7305.96,17.14112347059927
7305.964,17.1470013833445
7305.968,17.141267713856823
7305.972,17.08598648540018
7305.976000000001,17.022411269634315
7305.9800000000005,16.967550750678868
7305.984,16.93133367276196
7305.988,16.915719340131997
7305.992,16.91011789363041
7305.996,16.908471116440033
7306.0,16.90803838666738
7306.004,16.90421594034226
7306.008,16.901090669761977
7306.012,16.89828994651118
7306.0160000000005,16.897400446422946
7306.02,16.894503561000455
7306.024,16.893638101455146
7306.028,16.894275175842665
7306.032,16.892351932408644
7306.036,16.891546574220648
7306.04,16.88648603993488
7306.044,16.88326460718289
7306.048,16.875908201047764
7306.052000000001,16.863587422798567
7306.0560000000005,16.858647091227425
7306.06,16.85487272598816
7306.064,16.847143691437687
7306.068,16.833717048213924
7306.072,16.823680121542623
7306.076,16.804964558875305
7306.08,16.787787590955208
7306.084,16.777762684555373
7306.088,16.77009375136221
7306.092000000001,16.767569494355058
7306.0960000000005,16.76262916278392
7306.1,16.75618629727995
7306.104,16.753698101087185
7306.108,16.754623661989807
7306.112,16.75825378397152
7306.116,16.76820656874258
7306.12,16.770730825749734
7306.124,16.77806319134194
7306.128,16.78496282716149
7306.1320000000005,16.7961536998932
7306.136,16.810097214789852
7306.14,16.81328258672745
7306.144,16.82050676987649
7306.148,16.832911690025924
7306.152,16.846374394064078
7306.156,16.85944042914396
7306.16,16.876833761950387
7306.164,16.89064505386095
7306.168000000001,16.897087919364917
7306.1720000000005,16.906391609476998
7306.176,16.910490522045755
7306.18,16.917065610535815
7306.184,16.919409563471028
7306.188,16.92416959097023
7306.192,16.926393341190817
7306.196,16.923268070610533
7306.2,16.919902394600996
7306.204,16.916188130719043
7306.2080000000005,16.911993055978584
7306.212,16.912870535795356
7306.216,16.90506937961611
7306.22,16.898927020898704
7306.224,16.905105440430493
7306.228,16.911031434261574
7306.232,16.9179070295382
7306.236,16.926561624991294
7306.24,16.93133367276196
7306.244000000001,16.928208402181674
7306.2480000000005,16.926249097933262
7306.252,16.93156205791975
7306.256,16.9365624908482
7306.26,16.93933917355607
7306.264,16.948763066382774
7306.268,16.95764604699366
7306.272,16.96152859467609
7306.276,16.96792337909421
7306.28,16.977587677350165
7306.284000000001,16.98441519154094
7306.2880000000005,16.990293104286167
7306.292,16.992600996406992
7306.296,16.998659213224155
7306.3,17.002481659549275
7306.304,17.00164024054689
7306.308,17.00145993647495
7306.312,17.000979125616446
7306.316,17.00446500434061
7306.32,17.00465732868401
7306.3240000000005,16.989836333970587
7306.328,16.961059804089047
7306.332,16.93252367963676
7306.336,16.88410602618528
7306.34,16.871484741149516
7306.344,16.965218818015117
7306.348,17.09353521587871
7306.352,17.201405131984366
7306.356,17.321102995209255
7306.360000000001,17.36145504650931
7306.3640000000005,17.330562948850346
7306.368,17.2990217565324
7306.372,17.259354860705717
7306.376,17.21758441737307
7306.38,17.205023233694618
7306.384,17.20192200365726
7306.388,17.185309988495902
7306.392,17.12518459063982
7306.396,17.073677727422446
7306.400000000001,17.027640087720563
7306.404,17.0035033826236
7306.408,16.99213220581995
7306.412,16.98839390139507
7306.416,16.985617218687203
7306.42,16.983441549552463
7306.424,16.979378697798097
7306.428,16.978585359881563
7306.432,16.976950602962646
7306.436000000001,16.976589994818767
7306.4400000000005,16.97436624459818
7306.444,16.971866028133952
7306.448,16.969425913027038
7306.452,16.965567405887533
7306.456,16.95965343232792
7306.46,16.953018242480546
7306.464,16.94572193770273
7306.468,16.941178275089854
7306.472,16.934470963613705
7306.476000000001,16.92632121956204
7306.4800000000005,16.914060542670157
7306.484,16.90343462269719
7306.488,16.89356597982637
7306.492,16.88266359360976
7306.496,16.8691407882143
7306.5,16.857060415394358
7306.504,16.842900535611374
7306.508,16.833200176541027
7306.512,16.830567737090714
7306.5160000000005,16.82711791918094
7306.52,16.822490114667822
7306.524,16.82197324299493
7306.528,16.821841020008844
7306.532,16.822946884983406
7306.536,16.82306708769803
7306.54,16.82238193222466
7306.544,16.82442537837331
7306.548,16.83971516367378
7306.552000000001,16.85299756363999
7306.5560000000005,16.857360922180924
7306.56,16.866328044692047
7306.564,16.8826515733383
7306.568,16.89534498000284
7306.572,16.90379523084107
7306.576,16.914216806199168
7306.58,16.92987921991498
7306.584,16.93960361952825
7306.588,16.944928599786195
7306.592000000001,16.95477320211409
7306.5960000000005,16.962778702908203
7306.6,16.965158716657804
7306.604,16.96881287918244
7306.608,16.969510054927273
7306.612,16.972010271391504
7306.616,16.973476744509945
7306.62,16.97144531863276
7306.624,16.96902924406877
7306.628,16.963668202996438
7306.6320000000005,16.960098182372032
7306.636,16.9489794312691
7306.64,16.946443153990487
7306.644,16.952549451893503
7306.648,16.95629977658984
7306.652,16.962454155578712
7306.656,16.967803176379583
7306.66,16.965543365344608
7306.664,16.963019108337456
7306.668000000001,16.964846189599776
7306.6720000000005,16.972394920078308
7306.676,16.975544231201518
7306.68,16.974474427041343
7306.684,16.976854440790945
7306.688,16.983525691452705
7306.692,16.98948774609817
7306.696,16.993574638395465
7306.7,17.004260659725745
7306.704,17.00986210622733
7306.7080000000005,17.015295268928437
7306.712,17.019394181497194
7306.716,17.019153776067945
7306.72,17.020836614072714
7306.724,17.0206803505437
7306.728,17.02423835089664
7306.732,17.030260506899417
7306.736,17.034768108697904
7306.74,17.034275277567936
7306.744000000001,17.020524087014685
7306.7480000000005,16.9910864422027
7306.752,16.954148147998033
7306.756,16.89722014235101
7306.76,16.87932195814315
7306.764,16.972707447136337
7306.768,17.108368230863597
7306.772,17.228354580603586
7306.776,17.36776568902719
7306.78,17.431028377735025
7306.784000000001,17.408466328199662
7306.7880000000005,17.37639624393736
7306.792,17.339770476790722
7306.796,17.30285622312898
7306.8,17.28613602552446
7306.804,17.28339540363098
7306.808,17.261662752826542
7306.812,17.18470897492277
7306.816,17.111192994657316
7306.82,17.04297795410688
7306.8240000000005,17.019334080139885
7306.828,17.015211127028202
7306.832,17.015187086485273
7306.836,17.00094306480206
7306.84,16.992877462650632
7306.844,16.99633930083187
7306.848,17.002217213577097
7306.852,16.99852699023807
7306.856,16.994247773597372
7306.860000000001,16.993971307353732
7306.8640000000005,16.990569570529807
7306.868,16.98022011680048
7306.872,16.975616352830293
7306.876,16.96880085891098
7306.88,16.962514256936025
7306.884,16.957477763193182
7306.888,16.956804627991275
7306.892,16.945337289015924
7306.896,16.921717455591853
7306.900000000001,16.91366387371189
7306.904,16.91260608982318
7306.908,16.900597838632006
7306.912,16.89105374309068
7306.916,16.879790748730194
7306.92,16.86127953067774
7306.924,16.847828846911057
7306.928,16.84651863732163
7306.932,16.836048980877674
7306.936000000001,16.819016256215125
7306.9400000000005,16.81881191160026
7306.944,16.822778601182925
7306.948,16.821432330779114
7306.952,16.822622337653915
7306.956,16.827730953025533
7306.96,16.825603364976647
7306.964,16.833296338712728
7306.968,16.84806925234031
7306.972,16.856170915306123
7306.976000000001,16.863527321441254
7306.9800000000005,16.872314139880437
7306.984,16.88328864772582
7306.988,16.899840561529864
7306.992,16.91329124529655
7306.996,16.927931935938034
7307.0,16.94253656576513
7307.004,16.952224904564012
7307.008,16.960314547258363
7307.012,16.974943217628386
7307.0160000000005,16.982696292721783
7307.02,16.982167400777428
7307.024,16.97774394087918
7307.028,16.977455454364076
7307.032,16.978441116624012
7307.036,16.9750033189857
7307.04,16.972695426864874
7307.044,16.966456905975768
7307.048,16.95328268845272
7307.052000000001,16.95157580990503
7307.0560000000005,16.942476464407815
7307.06,16.936358146233335
7307.064,16.938906443783416
7307.068,16.949027512354952
7307.072,16.964473561184434
7307.076,16.971697744333476
7307.08,16.973560886410183
7307.084,16.97327239989508
7307.088,16.976421711018286
7307.092000000001,16.98482388077067
7307.0960000000005,16.992288469348964
7307.1,16.98829773922337
7307.104,16.986025907916932
7307.108,16.991603313875594
7307.112,16.996038794045305
7307.116,16.99685617250476
7307.12,17.00492177465619
7307.124,17.013540309294896
7307.128,17.021521769546084
7307.1320000000005,17.019057613896244
7307.136,17.0163049717313
7307.14,17.01767528267804
7307.144,17.023264708908165
7307.148,17.027159276862058
7307.152,17.026450080845763
7307.156,17.027111195776204
7307.16,17.030717277214993
7307.164,17.026738567360866
7307.168000000001,17.010451099529
7307.1720000000005,16.98131396150358
7307.176,16.926020712775475
7307.18,16.879201755428525
7307.184,16.930684578102976
7307.188,17.026209675416506
7307.192,17.122011238973684
7307.196,17.260893455452933
7307.2,17.36076989103594
7307.204,17.353617829515674
7307.2080000000005,17.331704874639296
7307.212,17.30883029804591
7307.216,17.287794822986303
7307.22,17.291857674740672
7307.224,17.28918917447597
7307.228,17.248933285347615
7307.232,17.166594425828585
7307.236,17.09937706780955
7307.24,17.04181198777501
7307.244000000001,17.017242552905387
7307.2480000000005,17.00593147745905
7307.252,16.999296287611678
7307.256,16.99780577395031
7307.26,16.994211712782985
7307.264,16.99226442880604
7307.268,16.995221415585846
7307.272,16.994452118212234
7307.276,16.98267225217886
7307.28,16.97286371066535
7307.284000000001,16.974678771656208
7307.2880000000005,16.9708202645167
7307.292,16.968993183254383
7307.296,16.965086595029028
7307.3,16.960422729701527
7307.304,16.955855026545727
7307.308,16.949039532626415
7307.312,16.945517593087864
7307.316,16.94127443726155
7307.32,16.928857496840656
7307.3240000000005,16.91946966482834
7307.328,16.910706886932083
7307.332,16.901667642792184
7307.336,16.891306168791395
7307.34,16.879934991987746
7307.344,16.870234632917402
7307.348,16.86343115926955
7307.352,16.856267077477824
7307.356,16.84690328600843
7307.360000000001,16.8450161033888
7307.3640000000005,16.844571353344683
7307.368,16.843357305926958
7307.372,16.845028123660263
7307.376,16.847925009082758
7307.38,16.853790901556522
7307.384,16.863286916012
7307.388,16.874225363042996
7307.392,16.886065330433688
7307.396,16.897208122079547
7307.400000000001,16.91055062340307
7307.404,16.926513543905443
7307.408,16.944111221326736
7307.412,16.953426931710275
7307.416,16.96411295304055
7307.42,16.97350078505287
7307.424,16.987420259406598
7307.428,16.997962037479322
7307.432,17.006219963974154
7307.436000000001,17.013167680879555
7307.4400000000005,17.018877309824305
7307.444,17.017086289376373
7307.448,17.01857680303774
7307.452,17.020163478870806
7307.456,17.017230532633924
7307.46,17.010463119800463
7307.464,17.003767828595773
7307.468,16.999741037655795
7307.472,16.999668916027016
7307.476000000001,16.990990280031
7307.4800000000005,16.989427644740857
7307.484,16.99547384128656
7307.488,17.005667031486873
7307.492,17.016268910916914
7307.496,17.02380562112398
7307.5,17.028229081022232
7307.504,17.024586938769055
7307.508,17.02465906039783
7307.512,17.035465284442736
7307.5160000000005,17.042893812206646
7307.52,17.042388960805216
7307.524,17.050767090014666
7307.528,17.05666904330282
7307.532,17.060707854514263
7307.536,17.070901044714574
7307.54,17.079411396910118
7307.544,17.08667164087355
7307.548,17.090037316883084
7307.552000000001,17.095831087728072
7307.5560000000005,17.109269751223295
7307.56,17.12436721218036
7307.564,17.13222846971692
7307.568,17.130449469540455
7307.572,17.128189658505477
7307.576,17.126735205658502
7307.58,17.133310294148558
7307.584,17.12058082666963
7307.588,17.09234520900391
7307.592000000001,17.06511929414105
7307.5960000000005,17.022351168277005
7307.6,17.003539443437987
7307.604,17.07924311310964
7307.608,17.17950419737945
7307.612,17.26755268584323
7307.616,17.39370543484355
7307.62,17.45599448156291
7307.624,17.434213749672622
7307.628,17.406470963136865
7307.6320000000005,17.37936525098863
7307.636,17.343977571802643
7307.64,17.336416821052648
7307.644,17.33171689491076
7307.648,17.317436812413153
7307.652,17.258898090390137
7307.656,17.205732429710913
7307.66,17.1532399042336
7307.664,17.117094947945468
7307.668000000001,17.105855994127907
7307.6720000000005,17.100555054412887
7307.676,17.09598735125709
7307.68,17.09482138492521
7307.684,17.092681776604866
7307.688,17.089472364124344
7307.692,17.088306397792465
7307.696,17.08974883036798
7307.7,17.089159837066312
7307.704,17.087212553089365
7307.7080000000005,17.087873668019814
7307.712,17.085938404314327
7307.716,17.079002707680388
7307.72,17.074290761267036
7307.724,17.06769163223405
7307.728,17.058327840764665
7307.732,17.05306296186403
7307.736,17.04387947446658
7307.74,17.037905399549654
7307.744000000001,17.02909454056754
7307.7480000000005,17.02493552664147
7307.752,17.01606456630205
7307.756,17.009958268399032
7307.76,17.00072669991573
7307.764,16.99300968563672
7307.768,16.988105414879968
7307.772,16.985148428100157
7307.776,16.982383765663755
7307.78,16.98064082630167
7307.784000000001,16.973825332382358
7307.7880000000005,16.97301997419436
7307.792,16.976758278619243
7307.796,16.983213164394677
7307.8,16.98565327950159
7307.804,16.990293104286167
7307.808,16.998815476753173
7307.812,17.010559281972164
7307.816,17.01898549226747
7307.82,17.030248486627954
7307.8240000000005,17.04058592008582
7307.828,17.04859142087993
7307.832,17.05808743533541
7307.836,17.06703051730361
7307.84,17.075793295199865
7307.844,17.084099302780544
7307.848,17.089231958695088
7307.852,17.093919864565514
7307.856,17.099809797582207
7307.860000000001,17.10703398073125
7307.8640000000005,17.109558237738398
7307.868,17.113813413836173
7307.872,17.114642812567094
7307.876,17.11210653528848
7307.88,17.108103784891423
7307.884,17.10335577766368
7307.888,17.101216169343335
7307.892,17.09831928392084
7307.896,17.093006323934357
7307.900000000001,17.091263384572272
7307.904,17.09573492555637
7307.908,17.100795459842143
7307.912,17.103319716849295
7307.916,17.10411305476583
7307.92,17.098920297493972
7307.924,17.098752013693492
7307.928,17.100278588169246
7307.932,17.099773736767816
7307.936000000001,17.09906454075152
7307.9400000000005,17.09721341894628
7307.944,17.102742743819086
7307.948,17.106673372587366
7307.952,17.10938995393792
7307.956,17.11600110324237
7307.96,17.121951137616374
7307.964,17.126759246201427
7307.968,17.128442084206196
7307.972,17.129331584294427
7307.976000000001,17.13240877378886
7307.9800000000005,17.136531726900543
7307.984,17.136315362014216
7307.988,17.139019923093308
7307.992,17.1391521460794
7307.996,17.140750842183927
7308.0,17.133803125278526
7308.004,17.123008921505082
7308.008,17.09470118221059
7308.012,17.06071987478573
7308.0160000000005,17.016881944761508
7308.02,17.00483763275595
7308.024,17.06927830806712
7308.028,17.15756720196015
7308.032,17.240903744010577
7308.036,17.357139769054225
7308.04,17.406567125308566
7308.044,17.383668508172253
7308.048,17.35775280289882
7308.052000000001,17.332522253098755
7308.0560000000005,17.304935730092016
7308.06,17.29846882404512
7308.064,17.306895034340425
7308.068,17.296713864411576
7308.072,17.241132129168367
7308.076,17.197775010002655
7308.08,17.153504350205782
7308.084,17.12796127334769
7308.088,17.118152731834183
7308.092000000001,17.11076026488466
7308.0960000000005,17.10960631882425
7308.1,17.104161135851676
7308.104,17.103235574949053
7308.108,17.102430216761057
7308.112,17.101997486988406
7308.116,17.08815013426345
7308.12,17.074783592397004
7308.124,17.072788227334208
7308.128,17.06913406480957
7308.1320000000005,17.06455434138231
7308.136,17.05749844203374
7308.14,17.054445293082235
7308.144,17.049408799339393
7308.148,17.04365108930879
7308.152,17.038145804978903
7308.156,17.031450513774217
7308.16,17.022759857506735
7308.164,17.010679484686786
7308.168000000001,16.999380429511916
7308.1720000000005,16.988514104109697
7308.176,16.982419826478143
7308.18,16.973981595911376
7308.184,16.962466175850174
7308.188,16.951407526104553
7308.192,16.93837755183906
7308.196,16.93302853103819
7308.2,16.925431719473806
7308.204,16.921909779935255
7308.2080000000005,16.920671691974604
7308.212,16.921993921835494
7308.216,16.92160927314869
7308.22,16.924830705900675
7308.224,16.928953659012354
7308.228,16.931501956562435
7308.232,16.941082112918153
7308.236,16.949039532626415
7308.24,16.955374215687222
7308.244000000001,16.96746660877863
7308.2480000000005,16.980244157343407
7308.252,16.994211712782985
7308.256,17.011568984775025
7308.26,17.037689034663327
7308.264,17.056572881131117
7308.268,17.066068895586596
7308.272,17.06371292237992
7308.276,17.063724942651387
7308.28,17.059397644924836
7308.284000000001,17.056236313530167
7308.2880000000005,17.063003726363625
7308.292,17.06608091585806
7308.296,17.051019515715385
7308.3,17.04171582560331
7308.304,17.051067596801232
7308.308,17.05040648187079
7308.312,17.03159475703177
7308.316,17.02955131088312
7308.32,17.036955798104103
7308.3240000000005,17.039191568596156
7308.328,17.0433265419793
7308.332,17.05014203589861
7308.336,17.05064688730004
7308.34,17.04569453545744
7308.344,17.04534594758502
7308.348,17.042857751392255
7308.352,17.046055143601315
7308.356,17.049060211466973
7308.360000000001,17.052341745576275
7308.3640000000005,17.05758258393398
7308.368,17.063039787178017
7308.372,17.070095686526578
7308.376,17.079158971209406
7308.38,17.086371134086985
7308.384,17.090854695342543
7308.388,17.093342891535308
7308.392,17.095746945827834
7308.396,17.097574027090154
7308.400000000001,17.100591115227278
7308.404,17.10269466273324
7308.408,17.100110304368773
7308.412,17.099016459665673
7308.416,17.099328986723698
7308.42,17.096624425644606
7308.424,17.085012843411704
7308.428,17.056464698687954
7308.432,17.01333596468003
7308.436000000001,16.95668442527665
7308.4400000000005,16.96464184498491
7308.444,17.066790111874354
7308.448,17.175429325353623
7308.452,17.307075338412364
7308.456,17.45095798782007
7308.46,17.487211126551365
7308.464,17.46448079321553
7308.468,17.452484562295822
7308.472,17.418082545369767
7308.476000000001,17.401350327493784
7308.4800000000005,17.391890373852693
7308.484,17.370350047391657
7308.488,17.29655760088256
7308.492,17.212079133043186
7308.496,17.144104497922
7308.5,17.098860196136656
7308.504,17.080397059170053
7308.508,17.073521463893428
7308.512,17.071009227157738
7308.5160000000005,17.066128996943913
7308.52,17.06114058428692
7308.524,17.05855622592245
7308.528,17.055406914799242
7308.532,17.05213740096141
7308.536,17.049997792641058
7308.54,17.044240082610457
7308.544,17.040105109227316
7308.548,17.036919737289715
7308.552000000001,17.03205152734735
7308.5560000000005,17.028409385094168
7308.56,17.022988242664525
7308.564,17.012206059162544
7308.568,17.00162822027543
7308.572,16.9920841247341
7308.576,16.983153063037363
7308.58,16.96792337909421
7308.584,16.950169438143902
7308.588,16.936959159806467
7308.592000000001,16.92535959784503
7308.5960000000005,16.91238972493685
7308.6,16.899035203341867
7308.604,16.88780826979577
7308.608,16.877651140409846
7308.612,16.868708058441648
7308.616,16.857745570867728
7308.62,16.85159119187886
7308.624,16.848357738855412
7308.628,16.848586124013202
7308.6320000000005,16.851050279663042
7308.636,16.855846367976632
7308.64,16.860967003619713
7308.644,16.869825943687673
7308.648,16.884550776229396
7308.652,16.89736438560856
7308.656,16.909348596256805
7308.66,16.92151311097699
7308.664,16.936514409762353
7308.668000000001,16.954881384557254
7308.6720000000005,16.97317623772338
7308.676,16.987456320220986
7308.68,16.999921341727735
7308.684,17.013840816081462
7308.688,17.024106127910546
7308.692,17.027616047177634
7308.696,17.03077737857231
7308.7,17.035056595213007
7308.704,17.039816622712213
7308.7080000000005,17.039468034839793
7308.712,17.035176797927633
7308.716,17.02858968916611
7308.72,17.024899465827083
7308.724,17.019009532810394
7308.728,17.014453849926056
7308.732,17.010415038714612
7308.736,17.000786801273044
7308.74,17.00466934895547
7308.744000000001,17.021449647917308
7308.7480000000005,17.02977969604091
7308.752,17.039648338911732
7308.756,17.045285846227706
7308.76,17.044131900167294
7308.764,17.044901197540906
7308.768,17.042629366234465
7308.772,17.04448048803971
7308.776,17.04666817744591
7308.78,17.051091637344157
7308.784000000001,17.06648960508779
7308.7880000000005,17.071742463716962
7308.792,17.07412247746656
7308.796,17.080132613197875
7308.8,17.088811249193895
7308.804,17.097441804104065
7308.808,17.096107553971716
7308.812,17.096696547273385
7308.816,17.098631810978866
7308.82,17.10001414219707
7308.8240000000005,17.105098717025765
7308.828,17.11091652841368
7308.832,17.114378366594913
7308.836,17.112154616374326
7308.84,17.107070041545633
7308.844,17.090962877785707
7308.848,17.061368969444707
7308.852,17.017230532633924
7308.856,16.958595648439204
7308.860000000001,16.976445751561215
7308.8640000000005,17.097189378403353
7308.868,17.221539086684274
7308.872,17.347042741025614
7308.876,17.476284699791833
7308.88,17.49774088435263
7308.884,17.470478908675382
7308.888,17.441810561237006
7308.892,17.392779873940928
7308.896,17.368162357985458
7308.900000000001,17.36602274966511
7308.904,17.36706851328236
7308.908,17.313470122830484
7308.912,17.2307946957105
7308.916,17.169010500392577
7308.92,17.119847590110414
7308.924,17.09831928392084
7308.928,17.090890756156934
7308.932,17.08236838368993
7308.936000000001,17.078894525237224
7308.9400000000005,17.077800680534125
7308.944,17.071033267700663
7308.948,17.066297280744386
7308.952,17.06320807097849
7308.956,17.064626463011084
7308.96,17.064566361653768
7308.964,17.05894087460926
7308.968,17.0516565901029
7308.972,17.048795765494795
7308.976000000001,17.048735664137485
7308.9800000000005,17.045910900343767
7308.984,17.04265340677739
7308.988,17.03479214924083
7308.992,17.02600533080164
7308.996,17.018997512538927
7309.0,17.008648058809605
7309.004,16.999741037655795
7309.008,16.990785935416135
7309.012,16.98098941417409
7309.0160000000005,16.971180872660582
7309.02,16.962922946165754
7309.024,16.95577088464549
7309.028,16.949460242127607
7309.032,16.94454395109939
7309.036,16.940877768303288
7309.04,16.938461693739296
7309.044,16.941358579161793
7309.048,16.944964660600583
7309.052000000001,16.948811147468625
7309.0560000000005,16.956059371160592
7309.06,16.96404083141178
7309.064,16.96893308189707
7309.068,16.974678771656208
7309.072,16.98199911697695
7309.076,16.99454828038394
7309.08,17.00620794370269
7309.084,17.02013943832788
7309.088,17.032039507075886
7309.092000000001,17.041848048589394
7309.0960000000005,17.05475782014026
7309.1,17.06557606445663
7309.104,17.07239155837594
7309.108,17.08074564704247
7309.112,17.086238911100892
7309.116,17.087308715261067
7309.12,17.087753465305184
7309.124,17.08842660050709
7309.128,17.088210235620764
7309.1320000000005,17.08252464721894
7309.136,17.07531248434136
7309.14,17.067619510605276
7309.144,17.063472516950668
7309.148,17.062871503377536
7309.152,17.056596921674043
7309.156,17.056981570360847
7309.16,17.066802132145817
7309.164,17.071357815030158
7309.168000000001,17.077367950761474
7309.1720000000005,17.080156653740804
7309.176,17.08102211328611
7309.18,17.07950755908182
7309.184,17.080060491569103
7309.188,17.08337808649279
7309.192,17.082909295905743
7309.196,17.083642532464964
7309.2,17.090229641226486
7309.204,17.095218053883478
7309.2080000000005,17.097850493333794
7309.212,17.10612044010009
7309.216,17.11467887338148
7309.22,17.12052072531232
7309.224,17.127312178688705
7309.228,17.129584009995142
7309.232,17.129223401851263
7309.236,17.135077274053568
7309.24,17.138599213592116
7309.244000000001,17.13779385540412
7309.2480000000005,17.136591828257856
7309.252,17.141015288156105
7309.256,17.142337518016994
7309.26,17.135846571427177
7309.264,17.116301610028934
7309.268,17.090890756156934
7309.272,17.0503704210564
7309.276,17.01876912738114
7309.28,17.06170553704566
7309.284000000001,17.146917241444257
7309.2880000000005,17.21694734298555
7309.292,17.31711226508366
7309.296,17.39571282017781
7309.3,17.386361048979882
7309.304,17.35802926914246
7309.308,17.334746003319342
7309.312,17.310308791435812
7309.316,17.29884145246046
7309.32,17.302471574442176
7309.3240000000005,17.308253325015702
7309.328,17.270317348279637
7309.332,17.22753720214413
7309.336,17.191344164770147
7309.34,17.15659355997168
7309.344,17.145414707511428
7309.348,17.1428183288755
7309.352,17.138959821735998
7309.356,17.13947669340889
7309.360000000001,17.138995882550383
7309.3640000000005,17.13820254463385
7309.368,17.135125355139415
7309.372,17.13121876691406
7309.376,17.13071391551263
7309.38,17.128069455790854
7309.384,17.125256712268598
7309.388,17.11970334685286
7309.392,17.11594100188506
7309.396,17.113368663792052
7309.400000000001,17.105663669784505
7309.404,17.099172723194684
7309.408,17.09573492555637
7309.412,17.090530148013052
7309.416,17.080252815912505
7309.42,17.068472949879123
7309.424,17.05735419877619
7309.428,17.04707686667564
7309.432,17.039191568596156
7309.436000000001,17.035044574941544
7309.4400000000005,17.028890195952677
7309.444,17.02384168193837
7309.448,17.01867296520944
7309.452,17.00753017356358
7309.456,17.000558416115254
7309.46,16.99958477412678
7309.464,17.003082673122407
7309.468,17.005005916556428
7309.472,17.003527423166524
7309.476000000001,17.000438213400628
7309.4800000000005,17.001844585161756
7309.484,17.00596753827344
7309.488,17.01298737680761
7309.492,17.021629951989247
7309.496,17.030933642101324
7309.5,17.038470352308394
7309.504,17.04830293436483
7309.508,17.059638050354092
7309.512,17.064422118396216
7309.5160000000005,17.069650936482464
7309.52,17.076802998002726
7309.524,17.081983735003124
7309.528,17.089917114168458
7309.532,17.093955925379902
7309.536,17.09629987831512
7309.54,17.101216169343335
7309.544,17.103055270877114
7309.548,17.095746945827834
7309.552000000001,17.088955492451447
7309.5560000000005,17.09071045208499
7309.56,17.090758533170842
7309.564,17.09178025624517
7309.568,17.084243546038095
7309.572,17.074819653211392
7309.576,17.07657461284494
7309.58,17.084832539339764
7309.584,17.092741877962176
7309.588,17.099725655681965
7309.592000000001,17.101132027443093
7309.5960000000005,17.096504222929983
7309.6,17.089796911453835
7309.604,17.082765052648195
7309.608,17.08361849192204
7309.612,17.09203268194588
7309.616,17.093042384748742
7309.62,17.095242094426403
7309.624,17.099040500208595
7309.628,17.100987784185545
7309.6320000000005,17.107538832132676
7309.636,17.112142596102867
7309.64,17.117419495274962
7309.644,17.120460623955005
7309.648,17.12701167190214
7309.652,17.132048165644985
7309.656,17.13535374029721
7309.66,17.13273332111835
7309.664,17.13012492221096
7309.668000000001,17.13207220618791
7309.6720000000005,17.137144760745137
7309.676,17.13476474699554
7309.68,17.11672231953013
7309.684,17.082957376991597
7309.688,17.04082632551507
7309.692,16.990509469172494
7309.696,17.009597660255153
7309.7,17.105146798111612
7309.704,17.20014300348079
7309.7080000000005,17.310044345463634
7309.712,17.429742208688523
7309.716,17.4538428529711
7309.72,17.42535480960466
7309.724,17.40822592277041
7309.728,17.376780892624165
7309.732,17.36551789826368
7309.736,17.3618757560105
7309.74,17.34884578174501
7309.744000000001,17.281808727797912
7309.7480000000005,17.22050534333849
7309.752,17.168181101661652
7309.756,17.13218038863107
7309.76,17.116013123513834
7309.764,17.106661352315903
7309.768,17.09818706093475
7309.772,17.093078445563133
7309.776,17.091047019685945
7309.78,17.08807801263468
7309.784000000001,17.084520012281736
7309.7880000000005,17.080397059170053
7309.792,17.081887572831423
7309.796,17.080312917269815
7309.8,17.07813724813508
7309.804,17.07123761231553
7309.808,17.06549192255639
7309.812,17.063532618307985
7309.816,17.06151321270226
7309.82,17.054529434982474
7309.8240000000005,17.045237765141856
7309.828,17.034695987069128
7309.832,17.023865722481297
7309.836,17.018552762494814
7309.84,17.007734518178445
7309.844,16.99525747640023
7309.848,16.980604765487286
7309.852,16.966168419460665
7309.856,16.956335837404232
7309.860000000001,16.942957275266323
7309.8640000000005,16.92834062516776
7309.868,16.919758151343444
7309.872,16.91653671859146
7309.876,16.91165648837763
7309.88,16.905922818889955
7309.884,16.90500927825879
7309.888,16.908915866484147
7309.892,16.91439711027111
7309.896,16.923448374682472
7309.900000000001,16.93048023348811
7309.904,16.935156119087072
7309.908,16.944339606484526
7309.912,16.960374648615677
7309.916,16.983970441496822
7309.92,17.00642430858902
7309.924,17.026870790346955
7309.928,17.033325676122384
7309.932,17.029070500024616
7309.936000000001,17.033421838294085
7309.9400000000005,17.043194318993212
7309.944,17.047906265406564
7309.948,17.052053259061168
7309.952,17.061164624829843
7309.956,17.063905246723323
7309.96,17.065203436041287
7309.964,17.063761003465775
7309.968,17.0630758479924
7309.972,17.062222408718558
7309.976000000001,17.055479036428018
7309.9800000000005,17.050021833183987
7309.984,17.04726919101904
7309.988,17.03862661583741
7309.992,17.036462966974135
7309.996,17.048819806037724
7310.0,17.06352059803652
7310.004,17.080877870028562
7310.008,17.099713635410506
7310.012,17.109053386336967
7310.0160000000005,17.096888871616787
7310.02,17.08246454586163
7310.024,17.07769249809096
7310.028,17.075324504612823
7310.032,17.07096114607189
7310.036,17.073870051765848
7310.04,17.084916681240003
7310.044,17.095566641755894
7310.048,17.103932750693886
7310.052000000001,17.114883217996343
7310.0560000000005,17.120977495627898
7310.06,17.125617320412474
7310.064,17.134199794236793
7310.068,17.132060185916448
7310.072,17.134969091610404
7310.076,17.133142010348084
7310.08,17.129824415424395
7310.084,17.133935348264615
7310.088,17.139404571780112
7310.092000000001,17.145570971040446
7310.0960000000005,17.148155329404908
7310.1,17.12303296204801
7310.104,17.080889890300025
7310.108,17.02328874945109
7310.112,16.98903097578259
7310.116,17.0630758479924
7310.12,17.19606813145496
7310.124,17.31514094056379
7310.128,17.454083258400352
7310.1320000000005,17.538104955924148
7310.136,17.518403730996894
7310.14,17.491093674233795
7310.144,17.46023763738922
7310.148,17.417169004738607
7310.152,17.402997104684164
7310.156,17.40608631445006
7310.16,17.393669374029162
7310.164,17.32445665094733
7310.168000000001,17.257191211842443
7310.1720000000005,17.199277543935484
7310.176,17.162519553802756
7310.18,17.148684221349267
7310.184,17.141279734128286
7310.188,17.13638748364299
7310.192,17.13172361831549
7310.196,17.12796127334769
7310.2,17.125088428468118
7310.204,17.12632651642877
7310.2080000000005,17.127179955702616
7310.212,17.127071773259452
7310.216,17.128922895064697
7310.22,17.12336952964896
7310.224,17.118633542692688
7310.228,17.1176959615186
7310.232,17.117335353374724
7310.236,17.117179089845706
7310.24,17.117575758803973
7310.244000000001,17.114354326051988
7310.2480000000005,17.100555054412887
7310.252,17.08836649914978
7310.256,17.07800502514899
7310.26,17.06624919965854
7310.264,17.056921469003537
7310.268,17.04713696803295
7310.272,17.03407093295307
7310.276,17.026185634873585
7310.28,17.022363188548468
7310.284000000001,17.015126985127964
7310.2880000000005,17.01013857247097
7310.292,17.00872018043838
7310.296,17.00986210622733
7310.3,17.011064133373594
7310.304,17.016329012274227
7310.308,17.021401566831454
7310.312,17.027387662019848
7310.316,17.03565760878614
7310.32,17.04601908278693
7310.3240000000005,17.054950144483662
7310.328,17.063472516950668
7310.332,17.07353348416489
7310.336,17.088691046479273
7310.34,17.10319951413467
7310.344,17.11654201545819
7310.348,17.128309861220103
7310.352,17.138250625719703
7310.356,17.149994430938694
7310.360000000001,17.156858005943853
7310.3640000000005,17.160187621139006
7310.368,17.164538959408475
7310.372,17.16625785822763
7310.376,17.1710299059983
7310.38,17.17560962942556
7310.384,17.17748479177373
7310.388,17.176054379469676
7310.392,17.167339682659268
7310.396,17.163757641763404
7310.400000000001,17.162507533531294
7310.404,17.163685520134628
7310.408,17.155764161240754
7310.412,17.147926944247118
7310.416,17.160235702224853
7310.42,17.17381860897763
7310.424,17.178037724261014
7310.428,17.181331278641775
7310.432,17.186019184512197
7310.436000000001,17.191127799883816
7310.4400000000005,17.187425556273325
7310.444,17.190971536354805
7310.448,17.195755604396933
7310.452,17.197414401858772
7310.456,17.202547057773316
7310.46,17.209470734135795
7310.464,17.210636700467667
7310.468,17.211898828971247
7310.472,17.220709687953356
7310.476000000001,17.22863104684723
7310.4800000000005,17.233367033803507
7310.484,17.23402814873395
7310.488,17.239605554692613
7310.492,17.240951825096428
7310.496,17.2418293049132
7310.5,17.2394492911636
7310.504,17.238788176233154
7310.508,17.241228291340068
7310.512,17.243548203732356
7310.5160000000005,17.241889406270513
7310.52,17.222777174644925
7310.524,17.184937360080564
7310.528,17.13903194336477
7310.532,17.10134839232942
7310.536,17.138539112234803
7310.54,17.238704034332915
7310.544,17.332257807126577
7310.548,17.4390458988006
7310.552000000001,17.524906697858178
7310.5560000000005,17.50400344578466
7310.56,17.455117001746142
7310.564,17.420366396947667
7310.568,17.388212170785128
7310.572,17.37662462909515
7310.576,17.3844257852744
7310.58,17.400977699078442
7310.584,17.36899175671638
7310.588,17.321427542538746
7310.592000000001,17.29170141121166
7310.5960000000005,17.254318366962874
7310.6,17.244221338934263
7310.604,17.241685061655648
7310.608,17.23329491217473
7310.612,17.231359648469244
7310.616,17.23484552719341
7310.62,17.236360081397702
7310.624,17.23557876375263
7310.628,17.237057257142535
7310.6320000000005,17.23699715578522
7310.636,17.232177026928703
7310.64,17.236961094970834
7310.644,17.233859864933475
7310.648,17.23822322347441
7310.652,17.235638865109944
7310.656,17.226311134454942
7310.66,17.219760086507804
7310.664,17.22031301899509
7310.668000000001,17.22014473519461
7310.6720000000005,17.210720842367905
7310.676,17.19803945597483
7310.68,17.192750536531275
7310.684,17.19022627952412
7310.688,17.190370522781674
7310.692,17.184168062706952
7310.696,17.17589811594066
7310.7,17.172231933144563
7310.704,17.169575453151317
7310.7080000000005,17.16776039216046
7310.712,17.164899567552357
7310.716,17.169635554508634
7310.72,17.16867393279162
7310.724,17.166317959584948
7310.728,17.16660644610005
7310.732,17.171474656042413
7310.736,17.176559230871106
7310.74,17.17892722434925
7310.744000000001,17.18075430561157
7310.7480000000005,17.185874941254646
7310.752,17.19589984765448
7310.756,17.20681425414255
7310.76,17.21777674171647
7310.764,17.223233944960505
7310.768,17.22209201917156
7310.772,17.230361965937846
7310.776,17.242394257671943
7310.78,17.248704900189825
7310.784000000001,17.257095049670742
7310.7880000000005,17.261686793369467
7310.792,17.261037698710485
7310.796,17.255195846779646
7310.8,17.25699888749904
7310.804,17.260040016179087
7310.808,17.259258698534016
7310.812,17.263862462504203
7310.816,17.267059854713263
7310.82,17.25703494831343
7310.8240000000005,17.245279122822975
7310.828,17.236876953070595
7310.832,17.24561569042393
7310.836,17.27055775370889
7310.84,17.274320098676693
7310.844,17.26722813851374
7310.848,17.264739942320976
7310.852,17.262816698886954
7310.856,17.260797293281232
7310.860000000001,17.26882683461827
7310.8640000000005,17.274380200034006
7310.868,17.26800945615881
7310.872,17.267612787200544
7310.876,17.279308511333685
7310.88,17.28279439005785
7310.884,17.285258545707688
7310.888,17.293961222246633
7310.892,17.299406405219205
7310.896,17.303024506929457
7310.900000000001,17.30613775723828
7310.904,17.31116223070966
7310.908,17.321066934394867
7310.912,17.321836231768476
7310.916,17.32396381981736
7310.92,17.321463603353134
7310.924,17.324757157733895
7310.928,17.321139056023643
7310.932,17.322845934571337
7310.936000000001,17.318073886800672
7310.9400000000005,17.290307059721993
7310.944,17.256193529311044
7310.948,17.216682897013374
7310.952,17.198772692534053
7310.956,17.259895772921535
7310.96,17.361515147866623
7310.964,17.443577541142012
7310.968,17.53409018525563
7310.972,17.58105338586013
7310.976000000001,17.540737395374464
7310.9800000000005,17.493918438027514
7310.984,17.465093827060123
7310.988,17.435608101162288
7310.992,17.41589485596357
7310.996,17.41662809252279
7311.0,17.429465742444886
7311.004,17.396602320266044
7311.008,17.37721362239682
7311.012,17.356130066251364
7311.0160000000005,17.330959617808613
7311.02,17.324985542891685
7311.024,17.323651292759333
7311.028,17.319215812589622
7311.032,17.318722981459654
7311.036,17.322341083169906
7311.04,17.3181940895153
7311.044,17.319732684262515
7311.048,17.322028556111878
7311.052000000001,17.317232467798288
7311.0560000000005,17.313073453872217
7311.06,17.312292136227146
7311.064,17.308589892616656
7311.068,17.306257959952905
7311.072,17.30303652720092
7311.076,17.298216398344405
7311.08,17.293732837088843
7311.084,17.288720383888926
7311.088,17.283431464445368
7311.092000000001,17.277625673328917
7311.0960000000005,17.26599005055309
7311.1,17.256277671211283
7311.104,17.245134879565423
7311.108,17.234496939320994
7311.112,17.22125060016917
7311.116,17.213016714217268
7311.12,17.214567329235948
7311.124,17.20855719350463
7311.128,17.20484292962268
7311.1320000000005,17.207114760929116
7311.136,17.2021023077292
7311.14,17.20086421976855
7311.144,17.202979787545974
7311.148,17.207307085272518
7311.152,17.214819754936663
7311.156,17.21730795112943
7311.16,17.22334212740367
7311.164,17.2306985335388
7311.168000000001,17.240110406094043
7311.1720000000005,17.252719670858344
7311.176,17.253008157373447
7311.18,17.258429299803094
7311.184,17.26649490195452
7311.188,17.280486497937023
7311.192,17.282133275127403
7311.196,17.287314012127798
7311.2,17.29311980324425
7311.204,17.296798006311814
7311.2080000000005,17.30034398639329
7311.212,17.304659263848375
7311.216,17.303457236702112
7311.22,17.314720231062598
7311.224,17.319287934218398
7311.228,17.32039379919296
7311.232,17.321319360095583
7311.236,17.317088224540736
7311.24,17.31322971740123
7311.244000000001,17.30494775036348
7311.2480000000005,17.303938047560617
7311.252,17.31473225133406
7311.256,17.32463695501927
7311.26,17.32236512371283
7311.264,17.328675766230713
7311.268,17.332738617985083
7311.272,17.331644773281983
7311.276,17.331296185409567
7311.28,17.331644773281983
7311.284000000001,17.334818124948118
7311.2880000000005,17.328916171659966
7311.292,17.337630868470374
7311.296,17.342114429725935
7311.3,17.346874457225137
7311.304,17.35424288363173
7311.308,17.365037087405174
7311.312,17.37077075689285
7311.316,17.37483360864722
7311.32,17.371900662410336
7311.3240000000005,17.37186460159595
7311.328,17.374184513988236
7311.332,17.378247365742606
7311.336,17.378824338772812
7311.34,17.376792912895628
7311.344,17.37858393334356
7311.348,17.38969066417503
7311.352,17.386505292237434
7311.356,17.362849397998975
7311.360000000001,17.327858387771254
7311.3640000000005,17.2829386333154
7311.368,17.261302144682663
7311.372,17.317725298928256
7311.376,17.431244742621352
7311.38,17.530940874132423
7311.384,17.642597175748808
7311.388,17.711737777201865
7311.392,17.682829024334236
7311.396,17.6490640817957
7311.400000000001,17.625191822670917
7311.404,17.587664535164578
7311.408,17.576605885418957
7311.412,17.573011824251633
7311.416,17.573492635110135
7311.42,17.535893225975023
7311.424,17.50354667546908
7311.428,17.468952334199628
7311.432,17.447520190181756
7311.436000000001,17.43922620287254
7311.4400000000005,17.43886559472866
7311.444,17.433480513113405
7311.448,17.42659289756531
7311.452,17.42535480960466
7311.456,17.429477762716346
7311.46,17.42617218806412
7311.464,17.4233474242704
7311.468,17.420270234775966
7311.472,17.42339550535625
7311.476000000001,17.42718189086698
7311.4800000000005,17.427217951681367
7311.484,17.422445903910702
7311.488,17.41801042374099
7311.492,17.416688193880102
7311.496,17.410521794619772
7311.5,17.407697030826053
7311.504,17.406699348294655
7311.508,17.401494570751336
7311.512,17.391986536024394
7311.5160000000005,17.37853585225771
7311.52,17.36579436450732
7311.524,17.35469965394731
7311.528,17.3467903153249
7311.532,17.34496323406258
7311.536,17.34310009198587
7311.54,17.33642884132411
7311.544,17.332666496356307
7311.548,17.331320225952492
7311.552000000001,17.334072868117435
7311.5560000000005,17.334060847845972
7311.56,17.335503280421488
7311.564,17.342102409454473
7311.568,17.350528619749777
7311.572,17.358425938100726
7311.576,17.36698437138212
7311.58,17.37666068990954
7311.584,17.387454893682982
7311.588,17.398345259628126
7311.592000000001,17.40840622684235
7311.5960000000005,17.417445470982248
7311.6,17.431388985878904
7311.604,17.43932236504424
7311.608,17.446654730636446
7311.612,17.453902954328417
7311.616,17.462281083537867
7311.62,17.47229396966624
7311.624,17.470274564060517
7311.628,17.470767395190485
7311.6320000000005,17.47247427373818
7311.636,17.47293104405376
7311.64,17.472185787223076
7311.644,17.470743354647563
7311.648,17.467161313751696
7311.652,17.46380765801362
7311.656,17.463543212041444
7311.66,17.45625892753509
7311.664,17.447339886109816
7311.668000000001,17.453866893514025
7311.6720000000005,17.463675435027533
7311.676,17.470551030304158
7311.68,17.476020253819655
7311.684,17.47508267264557
7311.688,17.471416489849467
7311.692,17.46841142198381
7311.696,17.47223386830893
7311.7,17.47644096332085
7311.704,17.472402152109403
7311.7080000000005,17.47457782124414
7311.712,17.481044727291035
7311.716,17.482511200409476
7311.72,17.487223146822828
7311.724,17.496671080192456
7311.728,17.50906398007043
7311.732,17.513944210284258
7311.736,17.514881791458343
7311.74,17.518043122853015
7311.744000000001,17.520218791987755
7311.7480000000005,17.528765204997683
7311.752,17.53322472571032
7311.756,17.53400604335539
7311.76,17.534522915028283
7311.764,17.535027766429714
7311.768,17.530460063273914
7311.772,17.514244717070824
7311.776,17.487968403653515
7311.78,17.450068487731833
7311.784000000001,17.400220421976297
7311.7880000000005,17.401482550479873
7311.792,17.486081221033878
7311.796,17.57493506768565
7311.8,17.666974286275025
7311.804,17.78753760904522
7311.808,17.822600740901716
7311.812,17.794677650294023
7311.816,17.773137323832987
7311.82,17.7490727403648
7311.8240000000005,17.735165286282534
7311.828,17.730874049370374
7311.832,17.731066373713777
7311.836,17.695582532356088
7311.84,17.636562999474567
7311.844,17.592845272164976
7311.848,17.557637897050924
7311.852,17.53999213854378
7311.856,17.53344109059665
7311.860000000001,17.526457312876857
7311.8640000000005,17.522719008451983
7311.868,17.517610393080364
7311.872,17.51449714277154
7311.876,17.51459330494324
7311.88,17.51276622368092
7311.884,17.513980271098646
7311.888,17.51309077101041
7311.892,17.510830959975436
7311.896,17.515302500959535
7311.900000000001,17.521721325920584
7311.904,17.520507278502855
7311.908,17.514473102228614
7311.912,17.507765790752465
7311.916,17.502392729408673
7311.92,17.499940594030292
7311.924,17.497620681638004
7311.928,17.491478322920603
7311.932,17.47681359173619
7311.936000000001,17.463543212041444
7311.9400000000005,17.452761028539463
7311.944,17.44218318965235
7311.948,17.429465742444886
7311.952,17.424501370330812
7311.956,17.424681674402752
7311.96,17.421087613235425
7311.964,17.414428382845127
7311.968,17.403237510113417
7311.972,17.405088631918662
7311.976000000001,17.413947571986622
7311.9800000000005,17.421448221379304
7311.984,17.43045140470482
7311.988,17.429513823530733
7311.992,17.420342356404742
7311.996,17.423179140469923
7312.0,17.430307161447267
7312.004,17.444827649374126
7312.008,17.45987702924534
7312.012,17.473315692740563
7312.0160000000005,17.48766789686695
7312.02,17.49281257305295
7312.024,17.5005175670605
7312.028,17.513739865669393
7312.032,17.52560387360301
7312.036,17.530916833589494
7312.04,17.537407780179315
7312.044,17.544127111926926
7312.048,17.549776639514366
7312.052000000001,17.549764619242904
7312.0560000000005,17.55090654503185
7312.06,17.549187646212694
7312.064,17.54335781455332
7312.068,17.53433059068488
7312.072,17.528452677939654
7312.076,17.52263486655174
7312.08,17.51299460883871
7312.084,17.505289614831167
7312.088,17.508186500253657
7312.092000000001,17.51428077788521
7312.0960000000005,17.518127264753254
7312.1,17.524329724827975
7312.104,17.528933488798163
7312.108,17.527995907624074
7312.112,17.527647319751658
7312.116,17.53080865114633
7312.12,17.53232320535062
7312.124,17.531914516120892
7312.128,17.537672226151493
7312.1320000000005,17.544295395727403
7312.136,17.545088733643937
7312.14,17.552901910094647
7312.144,17.56493420182874
7312.148,17.57500718931443
7312.152,17.582567940064422
7312.156,17.584443102412592
7312.16,17.584899872728172
7312.164,17.582579960335885
7312.168000000001,17.582868446850988
7312.1720000000005,17.584671487570382
7312.176,17.585368663315215
7312.18,17.58384208883946
7312.184,17.586089879602973
7312.188,17.586125940417364
7312.192,17.5726992971936
7312.196,17.54428337545594
7312.2,17.505157391845074
7312.204,17.450945967548606
7312.2080000000005,17.463086441725864
7312.212,17.568780688696783
7312.216,17.680412949770243
7312.22,17.79753847490213
7312.224,17.932934812657212
7312.228,17.961446896566578
7312.232,17.92575871059402
7312.236,17.900984931109537
7312.24,17.859899643250262
7312.244000000001,17.83266170811594
7312.2480000000005,17.82147083538423
7312.252,17.81169835468511
7312.256,17.758749058892214
7312.26,17.691651903587807
7312.264,17.641743736474957
7312.268,17.59919197549724
7312.272,17.583048750922927
7312.276,17.577651649036206
7312.28,17.57030726317254
7312.284000000001,17.567506539921748
7312.2880000000005,17.566172289789392
7312.292,17.56191711369162
7312.296,17.559657302656646
7312.3,17.560691046002436
7312.304,17.55684455913439
7312.308,17.552541301950768
7312.312,17.555991119860543
7312.316,17.55720516727827
7312.32,17.54935593001317
7312.3240000000005,17.542300030664606
7312.328,17.534991705615326
7312.332,17.52983500915786
7312.336,17.5189807040271
7312.34,17.50733306097981
7312.344,17.49121387694842
7312.348,17.48079230159032
7312.352,17.471031841162667
7312.356,17.4592159143149
7312.360000000001,17.447339886109816
7312.3640000000005,17.436317297178583
7312.368,17.423996518929382
7312.372,17.41230079479624
7312.376,17.402035482967154
7312.38,17.392767853669465
7312.384,17.389510360103092
7312.388,17.385868217849914
7312.392,17.38644519088012
7312.396,17.38657741386621
7312.400000000001,17.38931803575969
7312.404,17.394991603890052
7312.408,17.402035482967154
7312.412,17.410389571633683
7312.416,17.4289128099576
7312.42,17.444875730459977
7312.424,17.454419826001306
7312.428,17.45347022455576
7312.432,17.448013021311723
7312.436000000001,17.464108164800187
7312.4400000000005,17.482174632808523
7312.444,17.499099175027908
7312.448,17.509857317986963
7312.452,17.51857201479737
7312.456,17.52613276554737
7312.46,17.52971480644323
7312.464,17.531758252591878
7312.468,17.537540003165404
7312.472,17.542696699622873
7312.476000000001,17.5452930782588
7312.4800000000005,17.544716105228595
7312.484,17.545220956630025
7312.488,17.542336091478994
7312.492,17.52952248209983
7312.496,17.52250264356565
7312.5,17.521240515062075
7312.504,17.515975636161443
7312.508,17.52025485280214
7312.512,17.52862096174013
7312.5160000000005,17.534078164984166
7312.52,17.538874253297756
7312.524,17.541434571119296
7312.528,17.538693949225816
7312.532,17.537828489680507
7312.536,17.54552146341659
7312.54,17.553478883124857
7312.544,17.551747964034234
7312.548,17.548670774539804
7312.552000000001,17.551856146477398
7312.5560000000005,17.557229207821194
7312.56,17.563984600383193
7312.564,17.570667871316417
7312.568,17.581438034546935
7312.572,17.586510589104165
7312.576,17.589876265113702
7312.58,17.596607617132776
7312.584,17.602581692049704
7312.588,17.603759678653045
7312.592000000001,17.605959388330707
7312.5960000000005,17.60712535466258
7312.6,17.609252942711464
7312.604,17.60882021293881
7312.608,17.602257144720216
7312.612,17.583685825310447
7312.616,17.54963239625681
7312.62,17.501467168506046
7312.624,17.452580724467524
7312.628,17.487379410351842
7312.6320000000005,17.612077706505186
7312.636,17.723601785135482
7312.64,17.83280595137349
7312.644,17.94178173245371
7312.648,17.954234733689
7312.652,17.925987095751815
7312.656,17.893303977644916
7312.66,17.84079943189614
7312.664,17.818081118831767
7312.668000000001,17.8095467260933
7312.6720000000005,17.795711393639806
7312.676,17.737641462203836
7312.68,17.675797165528593
7312.684,17.625552430814793
7312.688,17.594864677770694
7312.692,17.582423696806874
7312.696,17.575043250128815
7312.7,17.572134344434858
7312.704,17.570295242901075
7312.7080000000005,17.568973013040186
7312.712,17.565463093773097
7312.716,17.562061356949172
7312.72,17.557505674064835
7312.724,17.556760417234152
7312.728,17.553070193895127
7312.732,17.549608355713886
7312.736,17.54578590938877
7312.74,17.5396315303999
7312.744000000001,17.53431857041342
7312.7480000000005,17.528224292781864
7312.752,17.523320022025114
7312.756,17.515470784760012
7312.76,17.505217493202387
7312.764,17.493389546083158
7312.768,17.479770578515996
7312.772,17.463543212041444
7312.776,17.45216001496633
7312.78,17.44343329788446
7312.784000000001,17.434045465872146
7312.7880000000005,17.42347964725649
7312.792,17.417445470982248
7312.796,17.4107381595061
7312.8,17.399475165145613
7312.804,17.39424634705937
7312.808,17.39457089438886
7312.812,17.391986536024394
7312.816,17.388596819471932
7312.82,17.39151774543735
7312.8240000000005,17.39814091501326
7312.828,17.404463577802606
7312.832,17.412012308281138
7312.836,17.420450538847906
7312.84,17.433252127955612
7312.844,17.444947852088752
7312.848,17.458759143999316
7312.852,17.469216780171806
7312.856,17.47978259878746
7312.860000000001,17.491826910793016
7312.8640000000005,17.500229080545395
7312.868,17.50873943274094
7312.872,17.519040805384414
7312.876,17.528945509069622
7312.88,17.531000975489732
7312.884,17.53131350254776
7312.888,17.53199865802113
7312.892,17.535748982717475
7312.896,17.53666252334863
7312.900000000001,17.533897860912226
7312.904,17.529137833413028
7312.908,17.52258678546589
7312.912,17.519329291899517
7312.916,17.51979808248656
7312.92,17.520952028546972
7312.924,17.52180546782082
7312.928,17.526313069619306
7312.932,17.533897860912226
7312.936000000001,17.54437953762764
7312.9400000000005,17.550966646389167
7312.944,17.54285296315189
7312.948,17.522755069266367
7312.952,17.521336677233776
7312.956,17.52240648139395
7312.96,17.52679388047781
7312.964,17.534907563715088
7312.968,17.538357381624866
7312.972,17.542011544149503
7312.976000000001,17.54697591626357
7312.9800000000005,17.55465686972819
7312.984,17.56670118173375
7312.988,17.569321600912602
7312.992,17.571485249775876
7312.996,17.578973878897095
7313.0,17.590429197600983
7313.004,17.594864677770694
7313.008,17.5908739476451
7313.012,17.59464831288437
7313.0160000000005,17.608832233210272
7313.02,17.611344469945962
7313.024,17.597412975320772
7313.028,17.574454256827146
7313.032,17.544704084957132
7313.036,17.51102328431884
7313.04,17.46818303682602
7313.044,17.43684618912294
7313.048,17.496214309876876
7313.052000000001,17.601571989246843
7313.0560000000005,17.699861748996785
7313.06,17.83156786341284
7313.064,17.913522074245062
7313.068,17.89277508570056
7313.072,17.865152501879432
7313.076,17.844008844376663
7313.08,17.809919354508637
7313.084,17.794557447579397
7313.088,17.78474890606589
7313.092000000001,17.754674186866385
7313.0960000000005,17.691687964402195
7313.1,17.64447233809698
7313.104,17.602221083905825
7313.108,17.57315606750918
7313.112,17.560150133786614
7313.116,17.553274538509992
7313.12,17.549668457071203
7313.124,17.547745213637178
7313.128,17.547084098706733
7313.1320000000005,17.541013861618104
7313.136,17.535845144889176
7313.14,17.533765637926138
7313.144,17.53208279992137
7313.148,17.529414299656665
7313.152,17.52518316410182
7313.156,17.520242832530677
7313.16,17.51152813572027
7313.164,17.50467658098657
7313.168000000001,17.49800533032481
7313.1720000000005,17.49353378934071
7313.176,17.488954065913447
7313.18,17.478628652727046
7313.184,17.469709611301774
7313.188,17.461018955034294
7313.192,17.45242446093851
7313.196,17.435608101162288
7313.2,17.418310930527557
7313.204,17.40662722666588
7313.2080000000005,17.39900637455857
7313.212,17.392599569868988
7313.216,17.389113691144825
7313.22,17.38063939976367
7313.224,17.371720358338397
7313.228,17.37036206766312
7313.232,17.369148020245394
7313.236,17.374677345118204
7313.24,17.38292325134157
7313.244000000001,17.382899210798644
7313.2480000000005,17.382670825640854
7313.252,17.38616872463648
7313.256,17.396193631036315
7313.26,17.41078624059195
7313.264,17.4210635726925
7313.268,17.427446336839157
7313.272,17.43392526315752
7313.276,17.441173486849486
7313.28,17.45082576483398
7313.284000000001,17.462485428152732
7313.2880000000005,17.468231117911873
7313.292,17.471356388492154
7313.296,17.476489044406698
7313.3,17.476260659248908
7313.304,17.47424125364319
7313.308,17.474637922601456
7313.312,17.476573186306936
7313.316,17.478772895984598
7313.32,17.474157111742947
7313.3240000000005,17.461163198291842
7313.328,17.452809109625317
7313.332,17.45173930546514
7313.336,17.449767980945268
7313.34,17.438565087942095
7313.344,17.43890165554305
7313.348,17.45064546076204
7313.352,17.45576609640512
7313.356,17.460021272502896
7313.360000000001,17.464588975658693
7313.3640000000005,17.46291815792539
7313.368,17.459516421101466
7313.372,17.460514103632864
7313.376,17.462906137653924
7313.38,17.46283401602515
7313.384,17.462100779465928
7313.388,17.46955334777276
7313.392,17.476921774179353
7313.396,17.479265727114566
7313.400000000001,17.489182451071237
7313.404,17.498341897925762
7313.408,17.498377958740154
7313.412,17.50074595221829
7313.416,17.506119013562085
7313.42,17.50943660848577
7313.424,17.511059345133226
7313.428,17.51248975743728
7313.432,17.510686716717885
7313.436000000001,17.51580735236097
7313.4400000000005,17.518175345839104
7313.444,17.511456014091493
7313.448,17.488076586096675
7313.452,17.45178738655099
7313.456,17.402780739797837
7313.46,17.347920220842386
7313.464,17.37593947362178
7313.468,17.50330627003983
7313.472,17.632391965277034
7313.476000000001,17.756080558627513
7313.4800000000005,17.880646631794765
7313.484,17.89924199174746
7313.488,17.862916731387383
7313.492,17.82988502540807
7313.496,17.781395250327815
7313.5,17.752113869044845
7313.504,17.73482871868158
7313.508,17.713264351677616
7313.512,17.650518534642682
7313.5160000000005,17.588373731180873
7313.52,17.5370591923069
7313.524,17.499736249415427
7313.528,17.481597659778316
7313.532,17.474782165859004
7313.536,17.471680935821645
7313.54,17.467654144881664
7313.544,17.462761894396372
7313.548,17.461439664535483
7313.552000000001,17.457689339839142
7313.5560000000005,17.452857190711164
7313.56,17.450681521576428
7313.564,17.447111500952026
7313.568,17.44518825751801
7313.572,17.441137426035098
7313.576,17.433913242886057
7313.58,17.422686309339955
7313.584,17.4142120179588
7313.588,17.410617956791473
7313.592000000001,17.404403476445292
7313.5960000000005,17.394835340361038
7313.6,17.385267204276783
7313.604,17.373415216614628
7313.608,17.362657073655573
7313.612,17.347679815413134
7313.616,17.334673881690566
7313.62,17.323098360272052
7313.624,17.309623635962442
7313.628,17.296485479253786
7313.6320000000005,17.281556302097197
7313.636,17.271086645653245
7313.64,17.267468543942993
7313.644,17.263093165130595
7313.648,17.26243205020015
7313.652,17.265833787024075
7313.656,17.267192077699352
7313.66,17.271916044384167
7313.664,17.279296491062222
7313.668000000001,17.28832371493066
7313.6720000000005,17.29838468214488
7313.676,17.311066068537958
7313.68,17.3263318132955
7313.684,17.340792199865046
7313.688,17.353040856485467
7313.692,17.367501243055013
7313.696,17.380663440306595
7313.7,17.390892691321294
7313.704,17.399619408403165
7313.7080000000005,17.408117740327246
7313.712,17.413454740856654
7313.716,17.419885586089162
7313.72,17.424140762186934
7313.724,17.430126857375328
7313.728,17.43286747926881
7313.732,17.432026060266423
7313.736,17.428948870771986
7313.74,17.42329934318455
7313.744000000001,17.42114771459274
7313.7480000000005,17.41918841034433
7313.752,17.417217085824458
7313.756,17.40722824023901
7313.76,17.404018827758488
7313.764,17.414909193703632
7313.768,17.4244412689735
7313.772,17.431352925064516
7313.776,17.437819831111412
7313.78,17.438745392014035
7313.784000000001,17.433047783340747
7313.7880000000005,17.436485580979063
7313.792,17.442507736981838
7313.796,17.445897453534304
7313.8,17.441750459879692
7313.804,17.448421710541453
7313.808,17.449563636330403
7313.812,17.454059217857427
7313.816,17.460934813134052
7313.82,17.46699302995122
7313.8240000000005,17.47265457781012
7313.828,17.477258341780306
7313.832,17.481309173263213
7313.836,17.484001714070843
7313.84,17.48926659297148
7313.844,17.491718728349852
7313.848,17.491790849978628
7313.852,17.485876876419013
7313.856,17.483136254525533
7313.860000000001,17.481633720592704
7313.8640000000005,17.471091942519976
7313.868,17.44374582494249
7313.872,17.401037800435756
7313.876,17.34985548454787
7313.88,17.38000232537615
7313.884,17.496334512591503
7313.888,17.611452652389126
7313.892,17.715331838369192
7313.896,17.827084302157278
7313.900000000001,17.83608748548279
7313.904,17.79352370423361
7313.908,17.75858077509174
7313.912,17.70565551984177
7313.916,17.678261321178436
7313.92,17.665579934785356
7313.924,17.654557345854123
7313.928,17.599059752511156
7313.932,17.544680044414207
7313.936000000001,17.499351600728623
7313.9400000000005,17.46389179991386
7313.944,17.449467474158702
7313.948,17.442507736981838
7313.952,17.43898579744329
7313.956,17.435584060619366
7313.96,17.43251889139639
7313.964,17.43004271547509
7313.968,17.43017493846118
7313.972,17.42783098552596
7313.976000000001,17.427217951681367
7313.9800000000005,17.425931782634866
7313.984,17.42390035675768
7313.988,17.421532363279542
7313.992,17.417373349353472
7313.996,17.413334538142028
7314.0,17.409992902675416
7314.004,17.4038866047724
7314.008,17.39685474596676
7314.012,17.38969066417503
7314.0160000000005,17.381841426909933
7314.02,17.370566412277984
7314.024,17.359411600360662
7314.028,17.345528186821323
7314.032,17.332798719342396
7314.036,17.320381778921497
7314.04,17.308481710173492
7314.044,17.300464189107917
7314.048,17.291653330125808
7314.052000000001,17.285486930865478
7314.0560000000005,17.281075491238692
7314.06,17.27695253812701
7314.064,17.273995551347202
7314.068,17.27554616636588
7314.072,17.278214666630586
7314.076,17.28329924145928
7314.08,17.289669985334474
7314.084,17.301089243223974
7314.088,17.310008284649246
7314.092000000001,17.31815802870091
7314.0960000000005,17.331380327309805
7314.1,17.346165261208842
7314.104,17.35990443149063
7314.108,17.36936438513172
7314.112,17.37571108846399
7314.116,17.382863149984257
7314.12,17.390748448063743
7314.124,17.401482550479873
7314.128,17.40612237526445
7314.1320000000005,17.411170889278754
7314.136,17.41827486971317
7314.14,17.423744093228667
7314.144,17.428311796384467
7314.148,17.430583627690908
7314.152,17.42357580942819
7314.156,17.41129109199338
7314.16,17.407372483496562
7314.164,17.40375438178631
7314.168000000001,17.405088631918662
7314.1720000000005,17.39553251610587
7314.176,17.3925635090546
7314.18,17.40065315174895
7314.184,17.40936784855936
7314.188,17.417253146638846
7314.192,17.424741775760065
7314.196,17.424285005444485
7314.2,17.422277620110226
7314.204,17.42165256599417
7314.2080000000005,17.429081093758075
7314.212,17.427626640911097
7314.216,17.43067978986261
7314.22,17.43986327726006
7314.224,17.441305709835575
7314.228,17.444034311457592
7314.232,17.458650961556152
7314.236,17.46260563086736
7314.24,17.46677666506489
7314.244000000001,17.4743013550005
7314.2480000000005,17.477126118794217
7314.252,17.474325395543424
7314.256,17.478760875713135
7314.26,17.483352619411864
7314.264,17.479890781230623
7314.268,17.478268044583167
7314.272,17.478087740511228
7314.276,17.46997405727395
7314.28,17.455561751790256
7314.284000000001,17.42846805991348
7314.2880000000005,17.37982202130421
7314.292,17.338508348287146
7314.296,17.394462711945696
7314.3,17.504027486327587
7314.304,17.59443194799804
7314.308,17.71308404760568
7314.312,17.79809140738941
7314.316,17.776466939028133
7314.32,17.745935449513052
7314.3240000000005,17.72600583942801
7314.328,17.69820295153494
7314.332,17.688081882963406
7314.336,17.677480003533365
7314.34,17.65596371761525
7314.344,17.590561420587072
7314.348,17.535580698916995
7314.352,17.4934736879834
7314.356,17.466728583979044
7314.360000000001,17.45443184627277
7314.3640000000005,17.448710197056556
7314.368,17.44821736592659
7314.372,17.445224318332393
7314.376,17.438853574457198
7314.38,17.435740324148377
7314.384,17.4333843509417
7314.388,17.4320981818952
7314.392,17.42832381665593
7314.396,17.42507834336102
7314.400000000001,17.424825917660304
7314.404,17.42134003893614
7314.408,17.41662809252279
7314.412,17.410317450004907
7314.416,17.40124214505062
7314.42,17.393561191586
7314.424,17.386048521921854
7314.428,17.37670877099539
7314.432,17.366323256451675
7314.436000000001,17.351285896851923
7314.4400000000005,17.345816673336426
7314.444,17.341152808008925
7314.448,17.326295752481112
7314.452,17.31395093368899
7314.456,17.306041595066578
7314.46,17.296906188754978
7314.464,17.29147302605387
7314.468,17.28745825538535
7314.472,17.280462457394098
7314.476000000001,17.2737070648321
7314.4800000000005,17.272877666101177
7314.484,17.273971510804277
7314.488,17.272769483658013
7314.492,17.276844355683846
7314.496,17.277433348985515
7314.5,17.27933255187661
7314.504,17.28745825538535
7314.508,17.302964405572144
7314.512,17.31866288010234
7314.5160000000005,17.333063165314574
7314.52,17.33856844964446
7314.524,17.34401363261703
7314.528,17.355120363448503
7314.532,17.367465182240625
7314.536,17.377201602125357
7314.54,17.380795663292684
7314.544,17.385050839390455
7314.548,17.38794772481295
7314.552000000001,17.39096481295007
7314.5560000000005,17.394174225430593
7314.56,17.399475165145613
7314.564,17.400617090934563
7314.568,17.394859380903963
7314.572,17.393681394300625
7314.576,17.395340191762468
7314.58,17.3913735021798
7314.584,17.379810001032748
7314.588,17.377658372440937
7314.592000000001,17.388236211328053
7314.5960000000005,17.387755400469548
7314.6,17.383896893330043
7314.604,17.39562867827757
7314.608,17.39872990831493
7314.612,17.39292411719848
7314.616,17.39767212442622
7314.62,17.40576176712057
7314.624,17.407781172726292
7314.628,17.412312815067704
7314.6320000000005,17.420630842919845
7314.636,17.42778290444011
7314.64,17.433853141528743
7314.644,17.441714399065305
7314.648,17.44343329788446
7314.652,17.440344088118565
7314.656,17.445128156160692
7314.66,17.458242272326423
7314.664,17.46260563086736
7314.668000000001,17.466668482621728
7314.6720000000005,17.463314826883654
7314.676,17.463879779642397
7314.68,17.458338434498124
7314.684,17.459396218386836
7314.688,17.459360157572448
7314.692,17.447099480680567
7314.696,17.410065024304192
7314.7,17.357824924527595
7314.704,17.316992062369035
7314.7080000000005,17.360253019363046
7314.712,17.46265371195321
7314.716,17.556135363118095
7314.72,17.675244233041315
7314.724,17.78785013610325
7314.728,17.792093291929554
7314.732,17.75386882867839
7314.736,17.729191211365602
7314.74,17.697986586648614
7314.744000000001,17.677996875206254
7314.7480000000005,17.669714908168505
7314.752,17.652033088846974
7314.756,17.591775468004798
7314.76,17.53552059755968
7314.764,17.488869924013212
7314.768,17.456547414050192
7314.772,17.443866027657116
7314.776,17.43534365519011
7314.78,17.43004271547509
7314.784000000001,17.428624323442495
7314.7880000000005,17.424741775760065
7314.792,17.41914032925848
7314.796,17.416063139764045
7314.8,17.414139896330024
7314.804,17.412553220496957
7314.808,17.407973497069694
7314.812,17.40210760459593
7314.816,17.398056773113023
7314.82,17.393945840272803
7314.8240000000005,17.388007826170263
7314.828,17.383175677042285
7314.832,17.3789565617589
7314.836,17.372585817883706
7314.84,17.359231296288723
7314.844,17.351249836037535
7314.848,17.337727030642075
7314.852,17.318783082816967
7314.856,17.3034932975165
7314.860000000001,17.29568012106579
7314.8640000000005,17.28892472850379
7314.868,17.274296058133768
7314.872,17.261999320427496
7314.876,17.256794542884176
7314.88,17.242730825272897
7314.884,17.232525614801123
7314.888,17.223895059890953
7314.892,17.231852479599212
7314.896,17.238619892432677
7314.900000000001,17.241084048082516
7314.904,17.244137197034025
7314.908,17.24681771757019
7314.912,17.249125609691017
7314.916,17.25740757672877
7314.92,17.267757030458096
7314.924,17.281279835853557
7314.928,17.293155864058637
7314.932,17.30727968302723
7314.936000000001,17.32212471828358
7314.9400000000005,17.33053890830742
7314.944,17.33468590196203
7314.948,17.341200889094775
7314.952,17.351478221195325
7314.956,17.357728762355894
7314.96,17.364279810303028
7314.964,17.363522533200882
7314.968,17.36355859401527
7314.972,17.36876337155859
7314.976000000001,17.374280676159938
7314.9800000000005,17.371672277252546
7314.984,17.373367135528778
7314.988,17.375771189821304
7314.992,17.364484154917893
7314.996,17.348953964188173
7315.0,17.350925288708044
7315.004,17.354495309332446
7315.008,17.359652005789915
7315.012,17.36789791201328
7315.0160000000005,17.3742926964314
7315.02,17.37259783815517
7315.024,17.372177128653977
7315.028,17.375013912719158
7315.032,17.377237662939745
7315.036,17.37872817660111
7315.04,17.383319920299837
7315.044,17.39160188733759
7315.048,17.394655036289098
7315.052000000001,17.399451124602688
7315.0560000000005,17.408346125485036
7315.06,17.415918896506493
7315.064,17.418587396771198
7315.068,17.42271034988288
7315.072,17.424597532502514
7315.076,17.431953938637648
7315.08,17.445152196703617
7315.084,17.445777250819674
7315.088,17.4437097641281
7315.092000000001,17.444947852088752
7315.0960000000005,17.444226635800995
7315.1,17.43511527003232
7315.104,17.406735409109043
7315.108,17.373126730099525
7315.112,17.325718779450906
7315.116,17.293191924873025
7315.12,17.35062478192148
7315.124,17.45617478563485
7315.128,17.540292645330346
7315.1320000000005,17.651528237445543
7315.136,17.724743710924432
7315.14,17.709321702637876
7315.144,17.686194700343773
7315.148,17.656095940601343
7315.152,17.62334070086567
7315.156,17.612330132205898
7315.16,17.6078585912218
7315.164,17.58288046712245
7315.168000000001,17.517862818781076
7315.1720000000005,17.470863557362186
7315.176,17.430739891219922
7315.18,17.408971179601092
7315.184,17.404199131830428
7315.188,17.398393340713977
7315.192,17.392936137469942
7315.196,17.388933387072885
7315.2,17.387154386896416
7315.204,17.386421150337195
7315.2080000000005,17.388152069427814
7315.212,17.38548356916311
7315.216,17.380194649719552
7315.22,17.37817524411383
7315.224,17.376877054795866
7315.228,17.373847946387283
7315.232,17.370578432549447
7315.236,17.368607108029575
7315.24,17.363774958901598
7315.244000000001,17.360012613933794
7315.2480000000005,17.355372789149218
7315.252,17.348917903373785
7315.256,17.342018267554234
7315.26,17.33300306395726
7315.264,17.320381778921497
7315.268,17.308722115602745
7315.272,17.296473458982323
7315.276,17.284825815935033
7315.28,17.274320098676693
7315.284000000001,17.266567023583296
7315.2880000000005,17.260989617624634
7315.292,17.255568475194988
7315.296,17.250447839551907
7315.3,17.251120974753814
7315.304,17.252190778913988
7315.308,17.255844941438628
7315.312,17.254642914292365
7315.316,17.25955920532058
7315.32,17.266374699239893
7315.3240000000005,17.273586862117472
7315.328,17.281580342640122
7315.332,17.28837179601651
7315.336,17.299538628205294
7315.34,17.312929210614666
7315.344,17.322064616926266
7315.348,17.33574368585074
7315.352,17.34912224798865
7315.356,17.357560478555417
7315.360000000001,17.369508628389273
7315.3640000000005,17.37571108846399
7315.368,17.380759602478296
7315.372,17.386601454409135
7315.376,17.38991904933282
7315.38,17.391024914307383
7315.384,17.3856157921492
7315.388,17.3833319405713
7315.392,17.380831724107072
7315.396,17.38160102148068
7315.400000000001,17.3732950139
7315.404,17.364363952203266
7315.408,17.370446209563358
7315.412,17.378896460401588
7315.416,17.385591751606274
7315.42,17.392034617110244
7315.424,17.39507574579029
7315.428,17.391253299465173
7315.432,17.39398190108719
7315.436000000001,17.40142244912256
7315.4400000000005,17.4049804494755
7315.444,17.406386821236627
7315.448,17.407889355169456
7315.452,17.415570308634077
7315.456,17.42274641069727
7315.46,17.429862411403153
7315.464,17.43949064884472
7315.468,17.4467028117223
7315.472,17.449575656601866
7315.476000000001,17.456571454593117
7315.4800000000005,17.463050380911476
7315.484,17.466620401535877
7315.488,17.46795465166823
7315.492,17.466187671763223
7315.496,17.469577388315685
7315.5,17.47147659120678
7315.504,17.46640403664955
7315.508,17.456703677579206
7315.512,17.43593264849178
7315.5160000000005,17.405112672461588
7315.52,17.35515642426289
7315.524,17.34086432149382
7315.528,17.409211585030345
7315.532,17.48792032256766
7315.536,17.568756648153858
7315.54,17.70212156003176
7315.544,17.758280268305175
7315.548,17.730489400683567
7315.552000000001,17.71504335185409
7315.5560000000005,17.699717505739233
7315.56,17.678081017106496
7315.564,17.668861468894658
7315.568,17.66161324520269
7315.572,17.618220065222587
7315.576,17.554716971085504
7315.58,17.504327993114153
7315.584,17.462076738923002
7315.588,17.445092095346308
7315.592000000001,17.436233155278344
7315.5960000000005,17.423960458114994
7315.6,17.417842139940515
7315.604,17.416988700666668
7315.608,17.41522172076166
7315.612,17.41297392999815
7315.616,17.415570308634077
7315.62,17.41069007842025
7315.624,17.407468645668263
7315.628,17.404728023774783
7315.6320000000005,17.397888489312546
7315.636,17.397828387955233
7315.64,17.39631383375094
7315.644,17.390760468335206
7315.648,17.380579298406357
7315.652,17.372165108382514
7315.656,17.364532236003743
7315.66,17.3501680116059
7315.664,17.342943828456857
7315.668000000001,17.336945712997004
7315.6720000000005,17.328916171659966
7315.676,17.31783348137142
7315.68,17.308445649359104
7315.684,17.302543696070952
7315.688,17.28946564071961
7315.692,17.28034225467947
7315.696,17.276808294869458
7315.7,17.268057537244662
7315.704,17.259895772921535
7315.7080000000005,17.25375341420413
7315.712,17.250303596294355
7315.716,17.251072893667963
7315.72,17.25174602886987
7315.724,17.25270765058688
7315.728,17.25882596876136
7315.732,17.269451888734327
7315.736,17.274223936504992
7315.74,17.278166585544735
7315.744000000001,17.291869695012135
7315.7480000000005,17.30417845298987
7315.752,17.314467805361883
7315.756,17.325033623977536
7315.76,17.33112790160909
7315.764,17.336188435894858
7315.768,17.339313706475142
7315.772,17.34424201777482
7315.776,17.350829126536343
7315.78,17.35985635040478
7315.784000000001,17.35953180307529
7315.7880000000005,17.35450732960391
7315.792,17.351670545538727
7315.796,17.34977134264763
7315.8,17.3435087812156
7315.804,17.3354672196071
7315.808,17.32327866434399
7315.812,17.323807556288347
7315.816,17.33386852350257
7315.82,17.34615324093738
7315.8240000000005,17.350252153506137
7315.828,17.34651384908126
7315.832,17.342475037869814
7315.836,17.34373716637339
7315.84,17.35926735710311
7315.844,17.376792912895628
7315.848,17.3775742305407
7315.852,17.369484587846348
7315.856,17.374677345118204
7315.860000000001,17.381216372793876
7315.8640000000005,17.382274156682588
7315.868,17.388849245172647
7315.872,17.396734543252133
7315.876,17.40316538848464
7315.88,17.408334105213573
7315.884,17.407672990283128
7315.888,17.40248023301127
7315.892,17.401843158623752
7315.896,17.407805213269217
7315.900000000001,17.411759882580423
7315.904,17.413466761128117
7315.908,17.410089064847117
7315.912,17.40699985508122
7315.916,17.386433170608658
7315.92,17.3584018975578
7315.924,17.312328197041534
7315.928,17.280450437122635
7315.932,17.34949487640399
7315.936000000001,17.46232916462372
7315.9400000000005,17.55816678899528
7315.944,17.679042638823507
7315.948,17.73587448229883
7315.952,17.701520546458628
7315.956,17.664978921212224
7315.96,17.633906519481325
7315.964,17.594900738585082
7315.968,17.58405845372579
7315.972,17.594900738585082
7315.976000000001,17.578565189667366
7315.9800000000005,17.51012176395914
7315.984,17.481032707019573
7315.988,17.442856324854255
7315.992,17.40032860441946
7315.996,17.39406604298743
7316.0,17.394546853845934
7316.004,17.394727157917874
7316.008,17.391938454938543
7316.012,17.392864015841166
7316.0160000000005,17.394222306516443
7316.02,17.393741495657938
7316.024,17.39502766470444
7316.028,17.38351224464324
7316.032,17.374400878874564
7316.036,17.368114276899608
7316.04,17.359712107147228
7316.044,17.35137003875216
7316.048,17.352704288884514
7316.052000000001,17.352475903726724
7316.0560000000005,17.34067199715042
7316.06,17.327497779627375
7316.064,17.323422907601543
7316.068,17.318722981459654
7316.072,17.29143696523948
7316.076,17.26439135444856
7316.08,17.26959613199188
7316.084,17.311366575324524
7316.088,17.308036960129375
7316.092000000001,17.29354051274544
7316.0960000000005,17.283864194218022
7316.1,17.276423646182653
7316.104,17.277433348985515
7316.108,17.270485632080113
7316.112,17.267011773627413
7316.116,17.272769483658013
7316.12,17.276928497584084
7316.124,17.276147179939013
7316.128,17.28462147132017
7316.1320000000005,17.292326465327715
7316.136,17.29796397264369
7316.14,17.31217193351252
7316.144,17.32143956281021
7316.148,17.32052602217905
7316.152,17.292278384241865
7316.156,17.26841814538854
7316.16,17.316391048795904
7316.164,17.383716589258103
7316.168000000001,17.389342076302615
7316.1720000000005,17.384642150160726
7316.176,17.37324693281415
7316.18,17.365998709122184
7316.184,17.365097188762487
7316.188,17.3720088448535
7316.192,17.377057358867805
7316.196,17.372273290825678
7316.2,17.361743533024413
7316.204,17.35894280977362
7316.2080000000005,17.350732964364642
7316.212,17.353533687615435
7316.216,17.36885953373029
7316.22,17.383716589258103
7316.224,17.385856197578452
7316.228,17.375037953262083
7316.232,17.367921952556205
7316.236,17.366058810479498
7316.24,17.370518331192134
7316.244000000001,17.371107324493803
7316.2480000000005,17.3731026895566
7316.252,17.38078364302122
7316.256,17.380723541663908
7316.26,17.382634764826467
7316.264,17.387983785627338
7316.268,17.393681394300625
7316.272,17.39858566505738
7316.276,17.40749268621119
7316.28,17.41571455189163
7316.284000000001,17.41892396437215
7316.2880000000005,17.420546701019607
7316.292,17.421989133595122
7316.296,17.423371464813325
7316.3,17.42408066082962
7316.304,17.420847207806172
7316.308,17.412781605654747
7316.312,17.390387839919864
7316.316,17.358882708416306
7316.32,17.33272659771362
7316.3240000000005,17.31217193351252
7316.328,17.35424288363173
7316.332,17.453999116500114
7316.336,17.537359699093464
7316.34,17.621213112816783
7316.344,17.689019464137488
7316.348,17.66208203578973
7316.352,17.617186321876805
7316.356,17.583830068568002
7316.360000000001,17.550257450372868
7316.3640000000005,17.53089279304657
7316.368,17.533248766253248
7316.372,17.553635146653868
7316.376,17.5360615097755
7316.38,17.502825459181324
7316.384,17.471332347949232
7316.388,17.429381600544644
7316.392,17.413058071898387
7316.396,17.40996886213249
7316.400000000001,17.410209267561743
7316.404,17.409800578332014
7316.408,17.404547719702844
7316.412,17.394871401175426
7316.416,17.391758150866604
7316.42,17.39543635393417
7316.424,17.393320786156746
7316.428,17.390856630506907
7316.432,17.385062859661918
7316.436000000001,17.37858393334356
7316.4400000000005,17.373956128830446
7316.444,17.373174811185375
7316.448,17.37347531797194
7316.452,17.371948743496187
7316.456,17.367188715996985
7316.46,17.366323256451675
7316.464,17.360649688321313
7316.468,17.355264606706054
7316.472,17.34899002500256
7316.476000000001,17.338628551001772
7316.4800000000005,17.33171689491076
7316.484,17.329312840618233
7316.488,17.326956867411557
7316.492,17.3205741032649
7316.496,17.31884318417428
7316.5,17.316042460923487
7316.504,17.31298931197198
7316.508,17.312869109257353
7316.512,17.314696190519673
7316.5160000000005,17.323110380543515
7316.52,17.32373543465957
7316.524,17.32107895466633
