3390.0,8.563650079208621
3390.004,8.60763225249039
3390.0080000000003,8.723808176176728
3390.012,8.820210753307036
3390.016,8.917586972425815
3390.02,9.018749577055324
3390.024,9.028101348253253
3390.0280000000002,8.981799262579193
3390.032,8.952169293423806
3390.036,8.929967852032325
3390.04,8.91527908030499
3390.044,8.917310506182174
3390.0480000000002,8.9082953025852
3390.052,8.861608568224339
3390.056,8.786133283710473
3390.06,8.721920993557095
3390.064,8.671760400743532
3390.068,8.645652371126696
3390.072,8.641853965344504
3390.076,8.64220255321692
3390.08,8.639053242093711
3390.0840000000003,8.635146653868356
3390.088,8.631708856230043
3390.092,8.628896112707787
3390.096,8.62758590311836
3390.1,8.627020950359617
3390.1040000000003,8.622296983674802
3390.108,8.617609077804376
3390.112,8.613822692293645
3390.116,8.60872609719349
3390.12,8.602908285805576
3390.1240000000003,8.59941038680995
3390.128,8.596994312245961
3390.132,8.592017919860433
3390.136,8.586692939602486
3390.14,8.581704526945495
3390.1440000000002,8.57579055338588
3390.148,8.569780417654565
3390.152,8.566534944359654
3390.156,8.557676004291693
3390.16,8.541917428404183
3390.164,8.536328002174061
3390.168,8.525413595685992
3390.172,8.523021561664926
3390.176,8.520545385743626
3390.1800000000003,8.513525547209447
3390.184,8.505111357185605
3390.188,8.494437356126788
3390.192,8.485229828186412
3390.196,8.470901664602955
3390.2000000000003,8.459830994585872
3390.204,8.457475021379196
3390.208,8.452823176323157
3390.212,8.445839398603367
3390.216,8.437737735637555
3390.2200000000003,8.434299937999242
3390.224,8.43223245130767
3390.228,8.433939329855363
3390.232,8.437906019438032
3390.236,8.441764526577536
3390.2400000000002,8.447822743394703
3390.244,8.457595224093822
3390.248,8.465564664073547
3390.252,8.477620996350566
3390.256,8.490073997585853
3390.26,8.506097019445539
3390.264,8.521302662845772
3390.268,8.542290056819526
3390.272,8.562195626361643
3390.2760000000003,8.577509452205035
3390.28,8.59071973054247
3390.284,8.602860204719725
3390.288,8.613233698991976
3390.292,8.626648321944275
3390.2960000000003,8.639077282636636
3390.3,8.646626013115169
3390.304,8.65329726377693
3390.308,8.658285676433922
3390.312,8.66070175099791
3390.3160000000003,8.663430352619928
3390.32,8.666615724557525
3390.324,8.66869523152056
3390.328,8.670137664096076
3390.332,8.670810799297984
3390.3360000000002,8.670834839840909
3390.34,8.671231508799176
3390.344,8.668430785548383
3390.348,8.665942589355618
3390.352,8.665990670441468
3390.356,8.663754899949419
3390.36,8.661675392986384
3390.364,8.660040636067466
3390.368,8.660942156427163
3390.372,8.667649467903312
3390.376,8.67065453576897
3390.38,8.665017028452995
3390.384,8.664283791893775
3390.388,8.662793278232408
3390.3920000000003,8.663322170176764
3390.396,8.66230044710244
3390.4,8.662120143030501
3390.404,8.663911163478433
3390.408,8.664331872979625
3390.4120000000003,8.664800663566668
3390.416,8.66151912945737
3390.42,8.66380298103527
3390.424,8.666615724557525
3390.428,8.66801007604719
3390.4320000000002,8.670594434411656
3390.436,8.669296245093692
3390.44,8.665125210896159
3390.444,8.66933230590808
3390.448,8.671532015585742
3390.452,8.673575461734389
3390.456,8.677025279644164
3390.46,8.678599935205769
3390.464,8.676905076929538
3390.468,8.678984583892573
3390.472,8.684718253380248
3390.476,8.686761699528896
3390.48,8.686160685955764
3390.484,8.685415429125081
3390.4880000000003,8.687122307672775
3390.492,8.68742281445934
3390.496,8.683696530305925
3390.5,8.68052317863979
3390.504,8.684561989851234
3390.5080000000003,8.688985449749483
3390.512,8.687987767218084
3390.516,8.684417746593683
3390.52,8.685619773739946
3390.524,8.688721003777305
3390.5280000000002,8.686521294099643
3390.532,8.685800077811885
3390.536,8.68902151056387
3390.54,8.695007605752261
3390.544,8.695512457153692
3390.5480000000002,8.69495952466641
3390.552,8.695175889552738
3390.556,8.695356193624677
3390.56,8.695512457153692
3390.564,8.694803261137396
3390.568,8.690367780967685
3390.572,8.683672489763
3390.576,8.681592982799964
3390.58,8.679777921809107
3390.5840000000003,8.678864381177947
3390.588,8.680991969226833
3390.592,8.683251780261807
3390.596,8.689322017350436
3390.6,8.695079727381037
3390.6040000000003,8.691185159427144
3390.608,8.687927665860771
3390.612,8.681629043614352
3390.616,8.676700732314673
3390.62,8.679982266423972
3390.6240000000003,8.680162570495911
3390.628,8.676917097201
3390.632,8.679850043437883
3390.636,8.689634544408465
3390.64,8.694659017879845
3390.6440000000002,8.696630342399716
3390.648,8.698048734432307
3390.652,8.702616437588107
3390.656,8.706619187985163
3390.66,8.713783269776892
3390.664,8.715946918640167
3390.668,8.716992682257416
3390.672,8.713987614391757
3390.676,8.7111748708695
3390.6800000000003,8.711499418198992
3390.684,8.713759229233967
3390.688,8.715946918640167
3390.692,8.715742574025303
3390.696,8.712845688602807
3390.7000000000003,8.711703762813856
3390.704,8.711439316841679
3390.708,8.702820782202972
3390.712,8.678864381177947
3390.716,8.643608924978048
3390.7200000000003,8.603184752049218
3390.724,8.582437763504714
3390.728,8.647876121347283
3390.732,8.751298537011769
3390.736,8.831846376082861
3390.7400000000002,8.932480088768015
3390.744,8.992136696037056
3390.748,8.964514112215928
3390.752,8.922779729697673
3390.756,8.901023038350308
3390.76,8.883497482557791
3390.764,8.869662150104302
3390.768,8.876766130538716
3390.772,8.88043231333482
3390.7760000000003,8.845285039578085
3390.78,8.774521701477571
3390.784,8.723195142332136
3390.788,8.686485233285255
3390.792,8.670414130339717
3390.7960000000003,8.66275721741802
3390.8,8.660449325297195
3390.804,8.659728109009437
3390.808,8.65544889236874
3390.812,8.652467865046008
3390.8160000000003,8.64946279718035
3390.82,8.643284377648557
3390.824,8.637466566260644
3390.828,8.6323339103461
3390.832,8.630026018225275
3390.8360000000002,8.631853099487595
3390.84,8.632309869803175
3390.844,8.62708105171693
3390.848,8.622345064760653
3390.852,8.61885918603649
3390.856,8.616046442514232
3390.86,8.611659043430373
3390.864,8.608040941720121
3390.868,8.602715961462174
3390.872,8.598232400206614
3390.876,8.593388230807172
3390.88,8.586536676073472
3390.884,8.576439648044863
3390.888,8.569491931139462
3390.8920000000003,8.562424011519434
3390.896,8.55743559886244
3390.9,8.549862827840983
3390.904,8.545367246313958
3390.908,8.538479630765872
3390.9120000000003,8.52691612961882
3390.916,8.520268919499983
3390.92,8.519728007284165
3390.924,8.51171048621859
3390.928,8.503392458366447
3390.9320000000002,8.495374937300872
3390.936,8.49029036247218
3390.94,8.489845612428063
3390.944,8.485001443028622
3390.948,8.483871537511135
3390.952,8.489809551613675
3390.956,8.492405930249603
3390.96,8.50029122832909
3390.964,8.512059074091006
3390.968,8.516037783945137
3390.972,8.523646615780983
3390.976,8.535943353487255
3390.98,8.543444002879939
3390.984,8.552795774077865
3390.9880000000003,8.568698593222926
3390.992,8.581692506674031
3390.996,8.592486710447474
3391.0,8.600720596399377
3391.004,8.618642821150162
3391.0080000000003,8.634918268710566
3391.012,8.641938107244743
3391.016,8.649763303966916
3391.02,8.656975466844495
3391.024,8.66745714355991
3391.0280000000002,8.671676258843293
3391.032,8.670342008710941
3391.036,8.671327670970877
3391.04,8.678143164890189
3391.044,8.682133895015783
3391.0480000000002,8.681629043614352
3391.052,8.683359962704971
3391.056,8.686076544055526
3391.06,8.683359962704971
3391.064,8.681965611215306
3391.068,8.68673765898597
3391.072,8.687723321245906
3391.076,8.685199064238754
3391.08,8.677806597289235
3391.0840000000003,8.673479299562688
3391.088,8.672193130516186
3391.092,8.675306380825008
3391.096,8.67704932018709
3391.1,8.68125641519901
3391.1040000000003,8.68321571944742
3391.108,8.678768219006246
3391.112,8.672373434588126
3391.116,8.670774738483596
3391.12,8.672397475131051
3391.1240000000003,8.673094650875884
3391.128,8.673924049606805
3391.132,8.674260617207759
3391.136,8.676388205256645
3391.14,8.67636416471372
3391.1440000000002,8.671532015585742
3391.148,8.672241211602037
3391.152,8.67869609737747
3391.156,8.677926800003862
3391.16,8.675102036210143
3391.164,8.677806597289235
3391.168,8.683985016821028
3391.172,8.681977631486768
3391.176,8.676207901184705
3391.1800000000003,8.678840340635022
3391.184,8.685066841252665
3391.188,8.68828827400465
3391.192,8.68719442930155
3391.196,8.683131577547181
3391.2000000000003,8.681460759813875
3391.204,8.683936935735177
3391.208,8.686136645412839
3391.212,8.690644247211326
3391.216,8.69308436231824
3391.2200000000003,8.692158801415617
3391.224,8.690247578253059
3391.228,8.690355760696223
3391.232,8.69166597028565
3391.236,8.690812531011803
3391.2400000000002,8.69212274060123
3391.244,8.68846857807659
3391.248,8.681100151669996
3391.252,8.685379368310693
3391.256,8.693024260960927
3391.26,8.691389504042009
3391.264,8.686725638714508
3391.268,8.687302611744714
3391.272,8.685295226410455
3391.2760000000003,8.683936935735177
3391.28,8.678539833848456
3391.284,8.68349218569106
3391.288,8.69861368719105
3391.292,8.705633525725228
3391.2960000000003,8.698806011534453
3391.3,8.687482915816654
3391.304,8.683576327591298
3391.308,8.680282773210537
3391.312,8.676039617384228
3391.3160000000003,8.678155185161652
3391.32,8.681376617913637
3391.324,8.68440572632222
3391.328,8.685908260255049
3391.332,8.688264233461725
3391.3360000000002,8.692531429830959
3391.34,8.695488416610766
3391.344,8.69742368031625
3391.348,8.701210065826979
3391.352,8.708229904361156
3391.356,8.712461039916002
3391.36,8.707628890788024
3391.364,8.702592397045182
3391.368,8.699166619678332
3391.372,8.702291890258616
3391.376,8.702291890258616
3391.38,8.702592397045182
3391.384,8.70404684989216
3391.388,8.709455972050344
3391.3920000000003,8.712485080458928
3391.396,8.708638593590885
3391.4,8.69788045063183
3391.404,8.673960110421193
3391.408,8.643043972219305
3391.4120000000003,8.602535657390236
3391.416,8.576091060172446
3391.42,8.630951579127897
3391.424,8.724601514093264
3391.428,8.79205927754155
3391.4320000000002,8.872330650369006
3391.436,8.941098623406722
3391.44,8.932263723881688
3391.444,8.889856206161523
3391.448,8.860478662706852
3391.452,8.839767734976737
3391.456,8.820270854664347
3391.46,8.825355429493042
3391.464,8.836918930640094
3391.468,8.827434936456076
3391.472,8.773139370259369
3391.476,8.724505351921561
3391.48,8.686136645412839
3391.484,8.662084082216113
3391.4880000000003,8.655977784313096
3391.492,8.652588067760634
3391.496,8.647094803702212
3391.5,8.645916817098874
3391.504,8.643392560091721
3391.5080000000003,8.6402793097829
3391.512,8.633307552334573
3391.516,8.625806902941891
3391.52,8.629328842480442
3391.524,8.627850349090538
3391.5280000000002,8.625674679955802
3391.532,8.626371855700635
3391.536,8.622417186389429
3391.54,8.618570699521387
3391.544,8.610937827142614
3391.5480000000002,8.605913353671234
3391.552,8.60680285375947
3391.556,8.603617481821871
3391.56,8.597727548805183
3391.564,8.592979541577444
3391.568,8.58921719660964
3391.572,8.584529290739212
3391.576,8.577413290033334
3391.58,8.568494248608062
3391.5840000000003,8.56145036953096
3391.588,8.55528397027063
3391.592,8.546280786945118
3391.596,8.542903090664119
3391.6,8.536291941359671
3391.6040000000003,8.530618373229311
3391.608,8.521290642574307
3391.612,8.515893540687586
3391.616,8.511001290202293
3391.62,8.508909762967797
3391.6240000000003,8.50723894523449
3391.628,8.502274573120424
3391.632,8.49892091738235
3391.636,8.493812302010731
3391.64,8.493680079024642
3391.6440000000002,8.497057775305642
3391.648,8.50207022850556
3391.652,8.50655378976112
3391.656,8.51198695246223
3391.66,8.518994770724946
3391.664,8.526230974145449
3391.668,8.53761417122056
3391.672,8.547891503321113
3391.676,8.554202145838994
3391.6800000000003,8.56592191051506
3391.684,8.580562601156545
3391.688,8.591897717145805
3391.692,8.606225880729262
3391.696,8.619063530651355
3391.7000000000003,8.630182281754289
3391.704,8.640519715212152
3391.708,8.646626013115169
3391.712,8.65535273019704
3391.716,8.65933144005117
3391.7200000000003,8.66275721741802
3391.724,8.667565326003073
3391.728,8.675029914581367
3391.732,8.6825786450599
3391.736,8.681520861171188
3391.7400000000002,8.679477415022541
3391.744,8.680643381354416
3391.748,8.68102803004122
3391.752,8.6814848003568
3391.756,8.679092766335737
3391.76,8.671315650699414
3391.764,8.670329988439478
3391.768,8.676568509328584
3391.772,8.681448739542413
3391.7760000000003,8.678215286518965
3391.78,8.67618386064178
3391.784,8.674921732138204
3391.788,8.672325353502275
3391.792,8.672457576488364
3391.7960000000003,8.673972130692656
3391.8,8.676604570142972
3391.804,8.678948523078185
3391.808,8.67531840109647
3391.812,8.67504193485283
3391.8160000000003,8.675065975395755
3391.82,8.67664063095736
3391.824,8.67476546860919
3391.828,8.673178792776122
3391.832,8.672217171059112
3391.8360000000002,8.671940704815471
3391.84,8.673142731961734
3391.844,8.676712752586136
3391.848,8.672770103546393
3391.852,8.671700299386218
3391.856,8.673311015762211
3391.86,8.67367162390609
3391.864,8.67600355656984
3391.868,8.679765901537644
3391.872,8.681677124700203
3391.876,8.679777921809107
3391.88,8.677986901361175
3391.884,8.67783063783216
3391.888,8.68102803004122
3391.8920000000003,8.684093199264192
3391.896,8.681520861171188
3391.9,8.680847725969281
3391.904,8.680835705697818
3391.908,8.681268435470473
3391.9120000000003,8.686377050842092
3391.916,8.690944753997892
3391.92,8.691185159427144
3391.924,8.689670605222853
3391.928,8.687386753644953
3391.9320000000002,8.687182409030088
3391.936,8.689983132280881
3391.94,8.68965858495139
3391.944,8.68961050386554
3391.948,8.69536821389614
3391.952,8.693517092090895
3391.956,8.690704348568639
3391.96,8.686809780614746
3391.964,8.689406159250675
3391.968,8.691966477072215
3391.972,8.690944753997892
3391.976,8.686437152199405
3391.98,8.676544468785659
3391.984,8.670438170882642
3391.9880000000003,8.664800663566668
3391.992,8.674825569966503
3391.996,8.689862929566255
3392.0,8.695740842311482
3392.004,8.696089430183898
3392.0080000000003,8.689850909294792
3392.012,8.675799211954976
3392.016,8.671123326356012
3392.02,8.669777055952197
3392.024,8.66859906934886
3392.0280000000002,8.675005874038442
3392.032,8.680414996196626
3392.036,8.689754747123091
3392.04,8.691545767571023
3392.044,8.692880017703375
3392.0480000000002,8.694815281408859
3392.052,8.698361261490335
3392.056,8.701222086098442
3392.06,8.702748660574196
3392.064,8.70290492410321
3392.068,8.703301593061477
3392.072,8.70797747866044
3392.076,8.70633070147006
3392.08,8.702989066003449
3392.0840000000003,8.704707964822605
3392.088,8.702965025460523
3392.092,8.702327951073004
3392.096,8.708554451690647
3392.1,8.709179505806704
3392.1040000000003,8.708410208433095
3392.108,8.69874591017714
3392.112,8.674320718565072
3392.116,8.63822384336279
3392.12,8.599254123280936
3392.1240000000003,8.578987945594939
3392.128,8.642466999189098
3392.132,8.746983259556682
3392.136,8.830644348936598
3392.14,8.91999102671834
3392.1440000000002,8.986667472521559
3392.148,8.968793328856625
3392.152,8.926301669236222
3392.156,8.90149182893735
3392.16,8.872631157155572
3392.164,8.853675189059
3392.168,8.855021459462817
3392.172,8.852136594311785
3392.176,8.81302263097238
3392.1800000000003,8.752620766872656
3392.184,8.707460606987548
3392.188,8.674116373950207
3392.192,8.65512434503925
3392.196,8.648356932205788
3392.2000000000003,8.645496107597682
3392.204,8.641024566613583
3392.208,8.634593721381075
3392.212,8.630266423654527
3392.216,8.630446727726467
3392.2200000000003,8.62411204466566
3392.224,8.622585470189906
3392.228,8.624100024394197
3392.232,8.624412551452226
3392.236,8.624821240681955
3392.2400000000002,8.624652956881478
3392.244,8.614459766681167
3392.248,8.611887428588162
3392.252,8.612175915103265
3392.256,8.606730732130693
3392.26,8.598593008350493
3392.264,8.598472805635865
3392.268,8.598472805635865
3392.272,8.593893082208602
3392.2760000000003,8.583772013637066
3392.28,8.577894100891841
3392.284,8.572629221991207
3392.288,8.561822997946303
3392.292,8.550295557613639
3392.2960000000003,8.54035479311404
3392.3,8.536003454844568
3392.304,8.533707582995206
3392.308,8.525882386273032
3392.312,8.516037783945137
3392.3160000000003,8.508645316995617
3392.32,8.503789127324714
3392.324,8.496492822546898
3392.328,8.487766105465026
3392.332,8.482717591450722
3392.3360000000002,8.480914550731327
3392.34,8.474639969027832
3392.344,8.466129616832289
3392.348,8.464699204528237
3392.352,8.473750468939599
3392.356,8.483378706381167
3392.36,8.489364801569556
3392.364,8.499269505254766
3392.368,8.504029532753968
3392.372,8.51112149291692
3392.376,8.522552771077885
3392.38,8.538383468594171
3392.384,8.553673253894637
3392.388,8.564142910338589
3392.3920000000003,8.578374911750345
3392.396,8.589878311540085
3392.4,8.604134353494766
3392.404,8.620493942955408
3392.408,8.636577066172409
3392.4120000000003,8.649018047136233
3392.416,8.655328689654114
3392.42,8.660232960410868
3392.424,8.664199649993536
3392.428,8.667397042202596
3392.4320000000002,8.668382704462532
3392.436,8.673311015762211
3392.44,8.677530131045595
3392.444,8.679645698823018
3392.448,8.683852793834939
3392.452,8.683179658633032
3392.456,8.67897256362111
3392.46,8.683588347862761
3392.464,8.686605435999882
3392.468,8.683119557275718
3392.472,8.685583712925558
3392.476,8.684393706050757
3392.48,8.682061773387007
3392.484,8.678623975748694
3392.4880000000003,8.677674374303146
3392.492,8.677265685073417
3392.496,8.673936069878268
3392.5,8.6734432387483
3392.504,8.6745370834514
3392.5080000000003,8.671808481829382
3392.512,8.670269887082165
3392.516,8.671988785901322
3392.52,8.67371970499194
3392.524,8.670714637126283
3392.5280000000002,8.667060474601643
3392.532,8.66704845433018
3392.536,8.66864715043471
3392.54,8.675077995667218
3392.544,8.677890739189474
3392.5480000000002,8.67933317176499
3392.552,8.681100151669996
3392.556,8.67965771909448
3392.56,8.674621225351638
3392.564,8.67595547548399
3392.568,8.681328536827786
3392.572,8.683840773563476
3392.576,8.681472780085338
3392.58,8.682446422073811
3392.5840000000003,8.685571692654095
3392.588,8.686677557628657
3392.592,8.685102902067053
3392.596,8.683588347862761
3392.6,8.684754314194636
3392.6040000000003,8.683672489763
3392.608,8.681136212484384
3392.612,8.68303541537548
3392.616,8.68664149681427
3392.62,8.687543017173967
3392.6240000000003,8.687771402331757
3392.628,8.689850909294792
3392.632,8.686857861700597
3392.636,8.684273503336131
3392.64,8.683852793834939
3392.6440000000002,8.68732665228764
3392.648,8.688035848303935
3392.652,8.688865247034856
3392.656,8.694238308378653
3392.66,8.69673852484288
3392.664,8.69806075470377
3392.668,8.694021943492325
3392.672,8.688168071290024
3392.676,8.688144030747099
3392.6800000000003,8.690968794540817
3392.684,8.694370531364742
3392.688,8.695151849009813
3392.692,8.689898990380643
3392.696,8.683780672206163
3392.7000000000003,8.68673765898597
3392.704,8.684802395280487
3392.708,8.680943888140982
3392.712,8.68399703709249
3392.716,8.687927665860771
3392.7200000000003,8.688168071290024
3392.724,8.686990084686686
3392.728,8.689141713278497
3392.732,8.693613254262596
3392.736,8.700008038680716
3392.7400000000002,8.701690876685484
3392.744,8.698938234520542
3392.748,8.695512457153692
3392.752,8.694166186749877
3392.756,8.691846274357589
3392.76,8.693889720506236
3392.764,8.695452355796379
3392.768,8.694238308378653
3392.772,8.69075242965449
3392.7760000000003,8.687338672559102
3392.78,8.692014558158066
3392.784,8.697039031629446
3392.788,8.696894788371894
3392.792,8.693673355619909
3392.7960000000003,8.69057212558255
3392.8,8.694214267835727
3392.804,8.692699713631436
3392.808,8.688384436176351
3392.812,8.684778354737562
3392.8160000000003,8.687723321245906
3392.82,8.690175456624283
3392.824,8.678684077106007
3392.828,8.66956069106587
3392.832,8.678623975748694
3392.8360000000002,8.68623280758454
3392.84,8.679321151493527
3392.844,8.67851579330553
3392.848,8.679573577194242
3392.852,8.679934185338121
3392.856,8.678587914934306
3392.86,8.675919414669602
3392.864,8.675258299739157
3392.868,8.674056272592894
3392.872,8.682494503159662
3392.876,8.683972996549565
3392.88,8.684994719623889
3392.884,8.690367780967685
3392.888,8.697988633074994
3392.8920000000003,8.708638593590885
3392.896,8.71021324915249
3392.9,8.708578492233572
3392.904,8.71532186452411
3392.908,8.711872046614333
3392.9120000000003,8.707640911059487
3392.916,8.703842505277295
3392.92,8.700380667096058
3392.924,8.70399876880631
3392.928,8.709131424720853
3392.9320000000002,8.714023675206144
3392.936,8.712941850774508
3392.94,8.69947914673636
3392.944,8.672493637302752
3392.948,8.637117978388227
3392.952,8.594349852524182
3392.956,8.584156662323872
3392.96,8.669873218123898
3392.964,8.778163843730749
3392.968,8.857894304342386
3392.972,8.95922519277237
3392.976,9.02032423261693
3392.98,8.991439520292225
3392.984,8.945149454889629
3392.9880000000003,8.927010865252518
3392.992,8.899592626046255
3392.996,8.880949185007713
3393.0,8.87919422537417
3393.004,8.865431014549456
3393.0080000000003,8.80639946139647
3393.012,8.744374860649291
3393.016,8.699190660221257
3393.02,8.664632379766191
3393.024,8.649174310665247
3393.0280000000002,8.644125796650941
3393.032,8.644534485880671
3393.036,8.642935789776141
3393.04,8.639738397567081
3393.044,8.636240498571455
3393.0480000000002,8.633716241564303
3393.052,8.632718559032904
3393.056,8.631624714329805
3393.06,8.620433841598095
3393.064,8.615745935727666
3393.068,8.61657533445859
3393.072,8.611803286687925
3393.076,8.609795901353666
3393.08,8.60575709014222
3393.0840000000003,8.603401116935546
3393.088,8.602884245262652
3393.092,8.603160711506291
3393.096,8.597198656860826
3393.1,8.589145074980863
3393.1040000000003,8.58401241906632
3393.108,8.57373508696577
3393.112,8.566174336215775
3393.116,8.566258478116012
3393.12,8.559130457138671
3393.1240000000003,8.547771300606485
3393.128,8.53815508343638
3393.132,8.52792583242168
3393.136,8.521470946646247
3393.14,8.513249080965807
3393.1440000000002,8.499846478284972
3393.148,8.490146119214629
3393.152,8.485001443028622
3393.156,8.478558577524652
3393.16,8.470529036187614
3393.164,8.465949312760351
3393.168,8.459121798569576
3393.172,8.452089939763937
3393.176,8.445370608016326
3393.1800000000003,8.450623466645496
3393.184,8.455659960388337
3393.188,8.457475021379196
3393.192,8.465985373574739
3393.196,8.475529469116069
3393.2000000000003,8.480938591274253
3393.204,8.490867335502385
3393.208,8.501445174389502
3393.212,8.514715554084248
3393.216,8.530798677301249
3393.2200000000003,8.544658050297663
3393.224,8.554021841767053
3393.228,8.571932046246376
3393.232,8.588219514078242
3393.236,8.601634137030539
3393.2400000000002,8.613305820620754
3393.244,8.6231985040345
3393.248,8.634233113237196
3393.252,8.647215006416838
3393.256,8.65220341907383
3393.26,8.653020797533289
3393.264,8.658213554805146
3393.268,8.664860764923981
3393.272,8.668046136861578
3393.2760000000003,8.669296245093692
3393.28,8.672565758931528
3393.284,8.674236576664834
3393.288,8.67349131983415
3393.292,8.674044252321432
3393.2960000000003,8.677061340458552
3393.3,8.670534333054343
3393.304,8.66494490682422
3393.308,8.667180677316269
3393.312,8.67161615748598
3393.3160000000003,8.674501022637012
3393.32,8.67600355656984
3393.324,8.673803846892179
3393.328,8.670690596583357
3393.332,8.668430785548383
3393.3360000000002,8.666531582657287
3393.34,8.662192264659277
3393.344,8.658538102134637
3393.348,8.665161271710547
3393.352,8.667541285460148
3393.356,8.669200082921991
3393.36,8.671700299386218
3393.364,8.67093100201261
3393.368,8.669933319481212
3393.372,8.67001746138145
3393.376,8.6699693802956
3393.38,8.668034116590116
3393.384,8.672950407618332
3393.388,8.67133969124234
3393.3920000000003,8.667144616501881
3393.396,8.667397042202596
3393.4,8.671315650699414
3393.404,8.678383570319442
3393.408,8.680991969226833
3393.4120000000003,8.683648449220074
3393.416,8.6837686519347
3393.42,8.682698847774526
3393.424,8.681737226057516
3393.428,8.67956155692278
3393.4320000000002,8.678888421720872
3393.436,8.679910144795196
3393.44,8.68075156379758
3393.444,8.683071476189868
3393.448,8.68275894913184
3393.452,8.682025712572619
3393.456,8.680691462440267
3393.46,8.68120833411316
3393.464,8.684213401978818
3393.468,8.686845841429134
3393.472,8.688035848303935
3393.476,8.683600368134224
3393.48,8.676989218829776
3393.484,8.679982266423972
3393.4880000000003,8.687867564503458
3393.492,8.690487983682312
3393.496,8.69217082168708
3393.5,8.688095949661248
3393.504,8.683552287048373
3393.5080000000003,8.683960976278103
3393.512,8.684441787136608
3393.516,8.681544901714114
3393.52,8.684838456094875
3393.524,8.686016442698213
3393.5280000000002,8.683660469491537
3393.532,8.683516226233985
3393.536,8.684261483064668
3393.54,8.683396023519359
3393.544,8.683191678904494
3393.5480000000002,8.683371982976434
3393.552,8.682795009946227
3393.556,8.682494503159662
3393.56,8.688168071290024
3393.564,8.68902151056387
3393.568,8.688612821334141
3393.572,8.686929983329373
3393.576,8.682494503159662
3393.58,8.67531840109647
3393.5840000000003,8.677662354031684
3393.588,8.685848158897736
3393.592,8.68372057084885
3393.596,8.681737226057516
3393.6,8.685788057540423
3393.6040000000003,8.69011535526697
3393.608,8.690548085039625
3393.612,8.688083929389785
3393.616,8.688480598348052
3393.62,8.688456557805127
3393.6240000000003,8.688360395633426
3393.628,8.684850476366337
3393.632,8.685343307496305
3393.636,8.691870314900514
3393.64,8.689646564679927
3393.6440000000002,8.682278138273334
3393.648,8.679393273122303
3393.652,8.683888854649327
3393.656,8.684417746593683
3393.66,8.680330854296388
3393.664,8.676147799827392
3393.668,8.673695664449015
3393.672,8.669007758578589
3393.676,8.658934771092904
3393.6800000000003,8.657552439874701
3393.684,8.669200082921991
3393.688,8.675162137567456
3393.692,8.676159820098855
3393.696,8.673599502277314
3393.7000000000003,8.6677816908894
3393.704,8.662372568731216
3393.708,8.663093785018974
3393.712,8.662288426830978
3393.716,8.66407944727891
3393.7200000000003,8.665341575782486
3393.724,8.671808481829382
3393.728,8.678431651405292
3393.732,8.67709740127294
3393.736,8.681917530129455
3393.7400000000002,8.689069591649721
3393.744,8.692651632545585
3393.748,8.698577626376663
3393.752,8.701666836142559
3393.756,8.701546633427933
3393.76,8.698241058775709
3393.764,8.693673355619909
3393.768,8.68993505119503
3393.772,8.691870314900514
3393.7760000000003,8.691473645942247
3393.78,8.69262759200266
3393.784,8.694899423309097
3393.788,8.690704348568639
3393.792,8.679285090679139
3393.7960000000003,8.649703202609603
3393.8,8.613774611207795
3393.804,8.574360141081826
3393.808,8.578723499622761
3393.812,8.668130278761817
3393.8160000000003,8.77095168085317
3393.82,8.848903141288337
3393.824,8.951628381207989
3393.828,9.005515258174967
3393.832,8.977868633810914
3393.8360000000002,8.938646488028345
3393.84,8.921241134950455
3393.844,8.884014354230684
3393.848,8.865202629391664
3393.852,8.856776419096361
3393.856,8.838697930816561
3393.86,8.77963031684919
3393.864,8.72212533817196
3393.868,8.682001672029694
3393.872,8.651145635185118
3393.876,8.638860917750309
3393.88,8.636541005358021
3393.884,8.633920586179167
3393.888,8.6277662071903
3393.8920000000003,8.618246152191896
3393.896,8.617380692646586
3393.9,8.621359402500717
3393.904,8.620662226755885
3393.908,8.615036739711371
3393.9120000000003,8.60562486715613
3393.916,8.604218495395003
3393.92,8.60918286750907
3393.924,8.604579103538882
3393.928,8.596465420301605
3393.9320000000002,8.595143190440716
3393.936,8.593712778136663
3393.94,8.589685987196681
3393.944,8.586079905757892
3393.948,8.581884831017433
3393.952,8.575369843884687
3393.956,8.570982444800828
3393.96,8.564551599568318
3393.964,8.556582159588594
3393.968,8.550812429286532
3393.972,8.545235023327871
3393.976,8.534008089781771
3393.98,8.525353494328678
3393.984,8.516566675889493
3393.9880000000003,8.5023466947492
3393.992,8.492958862736884
3393.996,8.492045322105724
3394.0,8.483294564480929
3394.004,8.471214191660984
3394.0080000000003,8.463449096296124
3394.012,8.458532805267907
3394.016,8.453544392610915
3394.02,8.446656777062827
3394.024,8.442858371280636
3394.0280000000002,8.439180168213069
3394.032,8.436583789577142
3394.036,8.436703992291768
3394.04,8.439108046584295
3394.044,8.441752506306074
3394.0480000000002,8.446897182492078
3394.052,8.457150474049705
3394.056,8.470096306414959
3394.06,8.479820706028228
3394.064,8.496745248247613
3394.068,8.514980000056426
3394.072,8.525245311885513
3394.076,8.535306279099736
3394.08,8.551533645574288
3394.0840000000003,8.570609816385485
3394.088,8.584589392096525
3394.092,8.600432109884276
3394.096,8.611274394743567
3394.1,8.626480038143798
3394.1040000000003,8.632574315775353
3394.108,8.637442525717718
3394.112,8.64416185746533
3394.116,8.650316236454197
3394.12,8.65078502704124
3394.1240000000003,8.652600088032097
3394.128,8.653729993549584
3394.132,8.652780392104036
3394.136,8.654871919338534
3394.14,8.655028182867548
3394.1440000000002,8.656254250556737
3394.148,8.659066994078993
3394.152,8.660713771269373
3394.156,8.659139115707768
3394.16,8.657937088561505
3394.164,8.652443824503083
3394.168,8.654415149022954
3394.172,8.656626878972078
3394.176,8.65722789254521
3394.1800000000003,8.65631435191405
3394.184,8.653104939433527
3394.188,8.650280175639809
3394.192,8.649775324238378
3394.196,8.648212688948236
3394.2000000000003,8.647142884788062
3394.204,8.645592269769383
3394.208,8.64238285728886
3394.212,8.64420993855118
3394.216,8.646277425242753
3394.2200000000003,8.641036586885045
3394.224,8.641156789599671
3394.228,8.641637600458177
3394.232,8.642142451859607
3394.236,8.644979235924788
3394.2400000000002,8.650520581069062
3394.244,8.654775757166833
3394.248,8.653970398978837
3394.252,8.654727676080983
3394.256,8.654463230108805
3394.26,8.656374453271363
3394.264,8.65740819661715
3394.268,8.657131730373509
3394.272,8.657095669559121
3394.2760000000003,8.655845561327007
3394.28,8.655244547753876
3394.284,8.655881622141395
3394.288,8.654583432823431
3394.292,8.6539824192503
3394.2960000000003,8.65352564893472
3394.3,8.653669892192271
3394.304,8.656230210013812
3394.308,8.658790527835352
3394.312,8.660028615796003
3394.3160000000003,8.659499723851647
3394.32,8.659896392809914
3394.324,8.660232960410868
3394.328,8.66115852131349
3394.332,8.666026731255856
3394.3360000000002,8.66448813650864
3394.34,8.660954176698626
3394.344,8.65832173724831
3394.348,8.662624994431932
3394.352,8.665245413610785
3394.356,8.665389656868337
3394.36,8.671495954771354
3394.364,8.674777488880652
3394.368,8.676376184985182
3394.372,8.676712752586136
3394.376,8.676111739013004
3394.38,8.67760225267437
3394.384,8.676736793129061
3394.388,8.67047423169703
3394.3920000000003,8.667060474601643
3394.396,8.670113623553151
3394.4,8.672673941374692
3394.404,8.665942589355618
3394.408,8.66750522464576
3394.4120000000003,8.67349131983415
3394.416,8.673984150964118
3394.42,8.672289292687887
3394.424,8.672193130516186
3394.428,8.679309131222064
3394.4320000000002,8.682109854472857
3394.436,8.681532881442651
3394.44,8.681689144971665
3394.444,8.678888421720872
3394.448,8.677494070231207
3394.452,8.677061340458552
3394.456,8.68102803004122
3394.46,8.68458603039416
3394.464,8.682903192389391
3394.468,8.679850043437883
3394.472,8.675835272769364
3394.476,8.677626293217296
3394.48,8.679164887964513
3394.484,8.684213401978818
3394.4880000000003,8.687050186043999
3394.492,8.686256848127465
3394.496,8.679008624435498
3394.5,8.67458516453725
3394.504,8.677566191859983
3394.5080000000003,8.678948523078185
3394.512,8.678022962175563
3394.516,8.676784874214912
3394.52,8.676508407971271
3394.524,8.673106671147346
3394.5280000000002,8.670366049253866
3394.532,8.670738677669208
3394.536,8.670209785724852
3394.54,8.668502907177158
3394.544,8.669452508622706
3394.5480000000002,8.669248164007842
3394.552,8.660040636067466
3394.556,8.656891324944256
3394.56,8.668310582833756
3394.564,8.677818617560698
3394.568,8.669019778850052
3394.572,8.658622244034875
3394.576,8.656987487115957
3394.58,8.652059175816278
3394.5840000000003,8.654547372009043
3394.588,8.655364750468502
3394.592,8.662504791717305
3394.596,8.667974015232803
3394.6,8.67189262372962
3394.6040000000003,8.669548670794407
3394.608,8.671772421014994
3394.612,8.6825786450599
3394.616,8.690055253909657
3394.62,8.68961050386554
3394.6240000000003,8.690776470197415
3394.628,8.690103334995507
3394.632,8.694526794893756
3394.636,8.698830052077378
3394.64,8.694334470550354
3394.6440000000002,8.686377050842092
3394.648,8.688264233461725
3394.652,8.6871463482157
3394.656,8.686401091385017
3394.66,8.687567057716892
3394.664,8.688156051018561
3394.668,8.678263367604815
3394.672,8.642683364075426
3394.676,8.603377076392619
3394.6800000000003,8.561594612788511
3394.684,8.569936681183579
3394.688,8.667745630075013
3394.692,8.769485207734729
3394.696,8.85366316878754
3394.7000000000003,8.956965381737396
3394.704,8.990021128259633
3394.708,8.946555826650757
3394.712,8.908319343128124
3394.716,8.895253308048243
3394.7200000000003,8.868303859429023
3394.724,8.852953972771244
3394.728,8.849287789975142
3394.732,8.83242334911307
3394.736,8.772165728270895
3394.7400000000002,8.7111748708695
3394.744,8.66791391387549
3394.748,8.641024566613583
3394.752,8.632189667088548
3394.756,8.623270625663276
3394.76,8.619051510379892
3394.764,8.613498144964154
3394.768,8.613161577363202
3394.772,8.60986802298244
3394.7760000000003,8.605973455028547
3394.78,8.603485258835784
3394.784,8.601201407257882
3394.788,8.595131170169255
3394.792,8.590635588642229
3394.7960000000003,8.590383162941514
3394.8,8.588459919507494
3394.804,8.592426609090163
3394.808,8.590851953528556
3394.812,8.585274547569895
3394.8160000000003,8.581788668845732
3394.82,8.577148844061158
3394.824,8.569383748696298
3394.828,8.56405876843835
3394.832,8.5638183630091
3394.8360000000002,8.561931180389466
3394.84,8.557207213704652
3394.844,8.553492949822697
3394.848,8.542806928492418
3394.852,8.527565224277803
3394.856,8.520918014158966
3394.86,8.515064141956664
3394.864,8.505796512658973
3394.868,8.495050389971382
3394.872,8.484785078142295
3394.876,8.474447644684432
3394.88,8.465552643802084
3394.884,8.45653744020511
3394.888,8.447570317693987
3394.8920000000003,8.442209276621654
3394.896,8.43725692477905
3394.9,8.433049829767128
3394.904,8.428337883353777
3394.908,8.427821011680884
3394.9120000000003,8.430982343075556
3394.916,8.43643954631959
3394.92,8.440346134544946
3394.924,8.447317891993272
3394.928,8.451428824833492
3394.9320000000002,8.460480089244854
3394.936,8.480890510188402
3394.94,8.494076747982907
3394.944,8.509222290025825
3394.948,8.518910628824706
3394.952,8.53363546136643
3394.956,8.553048199778582
3394.96,8.565224734770227
3394.964,8.578447033379122
3394.968,8.595599960756296
3394.972,8.60562486715613
3394.976,8.614207340980451
3394.98,8.624953463668044
3394.984,8.628463382935132
3394.9880000000003,8.629160558679965
3394.992,8.63416099160842
3394.996,8.635567363369548
3395.0,8.64124093149991
3395.004,8.64877764170698
3395.0080000000003,8.650075831024944
3395.012,8.65380211517836
3395.016,8.65818951426222
3395.02,8.658249615619534
3395.024,8.66174751461516
3395.0280000000002,8.660569528011822
3395.032,8.656927385758644
3395.036,8.65385019626421
3395.04,8.651301898714133
3395.044,8.647082783430749
3395.0480000000002,8.645460046783294
3395.052,8.647094803702212
3395.056,8.647900161890208
3395.06,8.648573297092115
3395.064,8.650304216182734
3395.068,8.648224709219699
3395.072,8.644726810224073
3395.076,8.647551574017792
3395.08,8.648453094377489
3395.0840000000003,8.648212688948236
3395.088,8.645051357553564
3395.092,8.644017614207778
3395.096,8.645736513026934
3395.1,8.645928837370336
3395.1040000000003,8.649667141795215
3395.108,8.65836981833416
3395.112,8.660821953712537
3395.116,8.657468297974463
3395.12,8.65078502704124
3395.1240000000003,8.651145635185118
3395.128,8.652648169117947
3395.132,8.65284049346135
3395.136,8.650496540526136
3395.14,8.649450776908887
3395.1440000000002,8.654595453094894
3395.148,8.65796112910443
3395.152,8.656566777614765
3395.156,8.652167358259442
3395.16,8.656747081686705
3395.164,8.660761852355224
3395.168,8.660413264482807
3395.172,8.656013845127484
3395.176,8.656915365487182
3395.1800000000003,8.659884372538452
3395.184,8.661278724028117
3395.188,8.667132596230418
3395.192,8.670137664096076
3395.196,8.670077562738763
3395.2000000000003,8.66882745450665
3395.204,8.669825137038048
3395.208,8.668226440933518
3395.212,8.668334623376682
3395.216,8.670594434411656
3395.2200000000003,8.671075245270162
3395.224,8.67029392762509
3395.228,8.668550988263009
3395.232,8.672517677845677
3395.236,8.670943022284073
3395.2400000000002,8.671363731785265
3395.244,8.671195447984788
3395.248,8.672421515673976
3395.252,8.670918981741147
3395.256,8.668526947720084
3395.26,8.67326293467636
3395.264,8.67486163078089
3395.268,8.669825137038048
3395.272,8.66750522464576
3395.2760000000003,8.671928684544008
3395.28,8.675883353855214
3395.284,8.6734432387483
3395.288,8.670918981741147
3395.292,8.668683211249098
3395.2960000000003,8.675570826797186
3395.3,8.67732578643073
3395.304,8.668394724733995
3395.308,8.672277272416425
3395.312,8.680414996196626
3395.3160000000003,8.679946205609584
3395.32,8.674224556393371
3395.324,8.666170974513408
3395.328,8.669416447808318
3395.332,8.672950407618332
3395.3360000000002,8.673298995490748
3395.34,8.672517677845677
3395.344,8.67257777920299
3395.348,8.675330421367933
3395.352,8.676268002542018
3395.356,8.67554678625426
3395.36,8.674501022637012
3395.364,8.67390000906388
3395.368,8.673743745534866
3395.372,8.670113623553151
3395.376,8.669692914051959
3395.38,8.66654360292875
3395.384,8.662516811988768
3395.388,8.656614858700616
3395.3920000000003,8.64854925654919
3395.396,8.648837743064293
3395.4,8.657492338517388
3395.404,8.663815001306732
3395.408,8.662600953889006
3395.4120000000003,8.660124777967704
3395.416,8.654871919338534
3395.42,8.651758669029713
3395.424,8.654006459793225
3395.428,8.65699950738742
3395.4320000000002,8.65786496693273
3395.436,8.661350845656893
3395.44,8.662949541761423
3395.444,8.662925501218497
3395.448,8.664007325650134
3395.452,8.663706818863568
3395.456,8.671291610156489
3395.46,8.676532448514196
3395.464,8.678888421720872
3395.468,8.683552287048373
3395.472,8.68732665228764
3395.476,8.682554604516975
3395.48,8.679525496108392
3395.484,8.676736793129061
3395.4880000000003,8.675979516026915
3395.492,8.677986901361175
3395.496,8.679285090679139
3395.5,8.679898124523733
3395.504,8.676844975572225
3395.5080000000003,8.659872352266989
3395.512,8.625374173169236
3395.516,8.584505250196289
3395.52,8.54592017880124
3395.524,8.573626904522605
3395.5280000000002,8.678443671676755
3395.532,8.774617863649272
3395.536,8.858603500358681
3395.54,8.953755969256873
3395.544,8.972291227852251
3395.5480000000002,8.926049243535507
3395.552,8.893233902442523
3395.556,8.875900670993408
3395.56,8.85256932408444
3395.564,8.846006255865843
3395.568,8.849035364274426
3395.572,8.821617125068164
3395.576,8.754844517093243
3395.58,8.70377038364852
3395.5840000000003,8.654463230108805
3395.588,8.627441659860809
3395.592,8.622849916162084
3395.596,8.620469902412482
3395.6,8.617921604862405
3395.6040000000003,8.611574901530133
3395.608,8.605456583355654
3395.612,8.602523637118772
3395.616,8.600359988255498
3395.62,8.599638771967742
3395.6240000000003,8.599999380111619
3395.628,8.595744204013847
3395.632,8.587931027563137
3395.636,8.58186079047451
3395.64,8.578663398265448
3395.6440000000002,8.573170134207025
3395.648,8.567520606619588
3395.652,8.562712498034536
3395.656,8.564383315767843
3395.66,8.565080491512676
3395.664,8.55592104465815
3395.668,8.547530895177232
3395.672,8.541340455373978
3395.676,8.53665254950355
3395.6800000000003,8.5320367652619
3395.684,8.52358651442367
3395.688,8.51440302702622
3395.692,8.506770154647448
3395.696,8.503332357009135
3395.7000000000003,8.491648653147458
3395.704,8.477284428749613
3395.708,8.467199420992465
3395.712,8.458881393140324
3395.716,8.452714993879994
3395.7200000000003,8.44539464855925
3395.724,8.437076620707108
3395.728,8.431955985064029
3395.732,8.423962504541379
3395.736,8.413156280496471
3395.7400000000002,8.406280685219844
3395.744,8.405523408117698
3395.748,8.406773516349812
3395.752,8.404910374273106
3395.756,8.407025942050527
3395.76,8.413144260225007
3395.764,8.422159463821984
3395.768,8.434167715013153
3395.772,8.44821941235297
3395.7760000000003,8.45963867024247
3395.78,8.470685299716626
3395.784,8.48759782166455
3395.788,8.504522363883936
3395.792,8.518706284209843
3395.7960000000003,8.53761417122056
3395.8,8.555320031085019
3395.804,8.571294971858856
3395.808,8.584625452910913
3395.812,8.594722480939526
3395.8160000000003,8.601441812687137
3395.82,8.608125083620358
3395.824,8.617969685948255
3395.828,8.625674679955802
3395.832,8.628343180220506
3395.8360000000002,8.63119198455715
3395.84,8.633031086090933
3395.844,8.633367653691886
3395.848,8.633896545636242
3395.852,8.63662514725826
3395.856,8.641637600458177
3395.86,8.647551574017792
3395.864,8.653381405677168
3395.868,8.650484520254674
3395.872,8.646830357730034
3395.876,8.648681479535279
3395.88,8.646758236101258
3395.884,8.643644985792436
3395.888,8.64106062742797
3395.8920000000003,8.640808201727255
3395.896,8.639437890780515
3395.9,8.637562728432345
3395.904,8.637911316304761
3395.908,8.637142018931153
3395.9120000000003,8.636096255313904
3395.916,8.635098572782505
3395.92,8.634485538937911
3395.924,8.632225727902936
3395.928,8.632309869803175
3395.9320000000002,8.630110160125513
3395.936,8.628006612619552
3395.94,8.631396329172015
3395.944,8.635146653868356
3395.948,8.634557660566687
3395.952,8.6335239172209
3395.956,8.634173011879883
3395.96,8.641373154485999
3395.964,8.643007911404917
3395.968,8.645616310312308
3395.972,8.644462364251895
3395.976,8.64507539809649
3395.98,8.646469749586155
3395.984,8.6472270266883
3395.9880000000003,8.645700452212546
3395.992,8.644318120994344
3395.996,8.642923769504678
3396.0,8.644642668323835
3396.004,8.646517830672005
3396.0080000000003,8.642935789776141
3396.012,8.643632965520974
3396.016,8.64169770181549
3396.02,8.644149837193867
3396.024,8.648609357906503
3396.0280000000002,8.652467865046008
3396.032,8.649354614737186
3396.036,8.64735924967439
3396.04,8.644774891309924
3396.044,8.64621732388544
3396.0480000000002,8.65174664875825
3396.052,8.653910297621524
3396.056,8.66572622446929
3396.06,8.664283791893775
3396.064,8.655869601869933
3396.068,8.652179378530905
3396.072,8.654066561150538
3396.076,8.657552439874701
3396.08,8.659824271181138
3396.0840000000003,8.655244547753876
3396.088,8.65562919644068
3396.092,8.654980101781698
3396.096,8.654054540879075
3396.1,8.655845561327007
3396.1040000000003,8.65562919644068
3396.108,8.65425888549394
3396.112,8.658333757519772
3396.116,8.659499723851647
3396.12,8.659992554981615
3396.1240000000003,8.660761852355224
3396.128,8.661098419956177
3396.132,8.655508993726054
3396.136,8.648080465962147
3396.14,8.649066128222083
3396.1440000000002,8.655713338340918
3396.148,8.657672642589327
3396.152,8.659127095436306
3396.156,8.659571845480423
3396.16,8.665822386640992
3396.164,8.666808048900927
3396.168,8.657852946661267
3396.172,8.65430696657979
3396.176,8.655148385582175
3396.1800000000003,8.660220940139405
3396.184,8.662336507916828
3396.188,8.663238028276526
3396.192,8.661963879501487
3396.196,8.657588500689089
3396.2000000000003,8.655977784313096
3396.204,8.658946791364366
3396.208,8.660004575253078
3396.212,8.662324487645366
3396.216,8.659187196793619
3396.2200000000003,8.659499723851647
3396.224,8.661374886199818
3396.228,8.657901027747117
3396.232,8.652624128575022
3396.236,8.65083310812709
3396.2400000000002,8.64580863465571
3396.244,8.644233979094105
3396.248,8.644462364251895
3396.252,8.64882572279283
3396.256,8.648032384876297
3396.26,8.647755918632656
3396.264,8.64334447900587
3396.268,8.640772140912867
3396.272,8.643825289864376
3396.2760000000003,8.643897411493151
3396.28,8.648405013291638
3396.284,8.648621378177966
3396.288,8.650400378354435
3396.292,8.656662939786466
3396.2960000000003,8.659956494167227
3396.3,8.656338392456975
3396.304,8.661951859230024
3396.308,8.672746063003467
3396.312,8.676388205256645
3396.3160000000003,8.676724772857598
3396.32,8.67732578643073
3396.324,8.677758516203385
3396.328,8.677061340458552
3396.332,8.675943455212527
3396.3360000000002,8.672493637302752
3396.34,8.672409495402514
3396.344,8.673839907706567
3396.348,8.676159820098855
3396.352,8.674464961822624
3396.356,8.664968947367145
3396.36,8.637142018931153
3396.364,8.601213427529345
3396.368,8.555560436514272
3396.372,8.538996502438764
3396.376,8.614736232924805
3396.38,8.721536344870291
3396.384,8.807625529085659
3396.388,8.91925779015912
3396.3920000000003,8.989744662015994
3396.396,8.96392511891426
3396.4,8.921673864723111
3396.404,8.912105728638856
3396.408,8.896779882524
3396.4120000000003,8.880901103921863
3396.416,8.875984812893646
3396.42,8.861716750667503
3396.424,8.80776977234321
3396.428,8.735347636780855
3396.4320000000002,8.683095516732793
3396.436,8.640038904353647
3396.44,8.623006179691098
3396.444,8.619327976623532
3396.448,8.616683516901753
3396.452,8.609831962168052
3396.456,8.605973455028547
3396.46,8.60433869810963
3396.464,8.602944346619966
3396.468,8.59730683930399
3396.472,8.586909304488815
3396.476,8.579456736181983
3396.48,8.582666148662506
3396.484,8.583255141964175
3396.4880000000003,8.578362891478882
3396.492,8.574432262710602
3396.496,8.574492364067916
3396.5,8.573915391037708
3396.504,8.565513221285329
3396.5080000000003,8.559274700396225
3396.512,8.55336072683661
3396.516,8.548805043952273
3396.52,8.542698746049256
3396.524,8.53701315764743
3396.5280000000002,8.532721920735272
3396.532,8.523646615780983
3396.536,8.512203317348556
3396.54,8.506914397905
3396.544,8.502430836649438
3396.5480000000002,8.490554808444358
3396.552,8.477512813907403
3396.556,8.469651556370842
3396.56,8.460155541915363
3396.564,8.452510649265129
3396.568,8.443050695624038
3396.572,8.430874160632392
3396.576,8.424815943815226
3396.58,8.415295888816818
3396.5840000000003,8.408083725939239
3396.588,8.405763813546953
3396.592,8.403900671470245
3396.596,8.400643177903872
3396.6,8.39721740053702
3396.6040000000003,8.395738907147118
3396.608,8.395318197645924
3396.612,8.39689285320753
3396.616,8.408756861141148
3396.62,8.420067936587486
3396.6240000000003,8.433037809495666
3396.628,8.449301236784605
3396.632,8.46489152887164
3396.636,8.480169293900644
3396.64,8.495555241372813
3396.6440000000002,8.516290209645852
3396.648,8.537445887420084
3396.652,8.554298308010694
3396.656,8.569660214939937
3396.66,8.583772013637066
3396.664,8.59533551478412
3396.668,8.607524070047226
3396.672,8.61407511799436
3396.676,8.619748686124725
3396.6800000000003,8.622573449918443
3396.684,8.62337880810644
3396.688,8.625963166470905
3396.692,8.629473085737994
3396.696,8.63438937676621
3396.7000000000003,8.638981120464935
3396.704,8.640724059827017
3396.708,8.639858600281707
3396.712,8.636865552687512
3396.716,8.635146653868356
3396.7200000000003,8.637779093318672
3396.724,8.640796181455793
3396.728,8.644245999365568
3396.732,8.639401829966127
3396.736,8.633896545636242
3396.7400000000002,8.635338978211758
3396.744,8.638055559562313
3396.748,8.639281627251501
3396.752,8.636324640471694
3396.756,8.636312620200231
3396.76,8.633908565907705
3396.764,8.632394011703413
3396.768,8.629449045195068
3396.772,8.632249768445861
3396.7760000000003,8.63438937676621
3396.78,8.633908565907705
3396.784,8.633235430705797
3396.788,8.634701903824238
3396.792,8.635290897125907
3396.7960000000003,8.634810086267402
3396.8,8.634136951065495
3396.804,8.635819789070263
3396.808,8.639197485351263
3396.812,8.641144769328209
3396.8160000000003,8.639990823267796
3396.82,8.639534052952216
3396.824,8.645508127869144
3396.828,8.650917250027328
3396.832,8.65220341907383
3396.8360000000002,8.650736945955389
3396.84,8.653886257078598
3396.844,8.650628763512225
3396.848,8.651878871744339
3396.852,8.656025865398947
3396.856,8.658381838605623
3396.86,8.66024498068233
3396.864,8.65996851443869
3396.868,8.65923527787947
3396.872,8.661098419956177
3396.876,8.66184367678686
3396.88,8.66133882538543
3396.884,8.661434987557131
3396.888,8.663514494520166
3396.8920000000003,8.663718839135031
3396.896,8.662036001130263
3396.9,8.66133882538543
3396.904,8.664271771622312
3396.908,8.664391974336938
3396.9120000000003,8.663562575606017
3396.916,8.661759534886622
3396.92,8.665822386640992
3396.924,8.671219488527713
3396.928,8.674561123994325
3396.9320000000002,8.672697981917617
3396.936,8.667673508446237
3396.94,8.668406745005457
3396.944,8.678527813576993
3396.948,8.679753881266182
3396.952,8.674801529423577
3396.956,8.671423833142578
3396.96,8.673479299562688
3396.964,8.673731725263403
3396.968,8.671423833142578
3396.972,8.670894941198222
3396.976,8.672397475131051
3396.98,8.670606454683119
3396.984,8.665774305555141
3396.9880000000003,8.669127961293215
3396.992,8.67019776545339
3396.996,8.670630495226044
3397.0,8.674116373950207
3397.004,8.679249029864751
3397.0080000000003,8.681280455741936
3397.012,8.680390955653701
3397.016,8.677157502630253
3397.02,8.675558806525723
3397.024,8.677710435117534
3397.0280000000002,8.679261050136214
3397.032,8.676448306613958
3397.036,8.675029914581367
3397.04,8.672902326532482
3397.044,8.669873218123898
3397.0480000000002,8.661086399684715
3397.052,8.659716088737975
3397.056,8.663418332348465
3397.06,8.671652218300368
3397.064,8.672625860288841
3397.068,8.669993420838525
3397.072,8.669272204550767
3397.076,8.663358230991152
3397.08,8.657552439874701
3397.0840000000003,8.659451642765797
3397.088,8.668995738307126
3397.092,8.671712319657681
3397.096,8.669885238395361
3397.1,8.671183427713325
3397.1040000000003,8.676340124170794
3397.108,8.68308349646133
3397.112,8.689911010652105
3397.116,8.693012240689464
3397.12,8.69673852484288
3397.1240000000003,8.697543883030876
3397.128,8.695272051724439
3397.132,8.692916078517763
3397.136,8.691629909471262
3397.14,8.694346490821816
3397.1440000000002,8.69632983561315
3397.148,8.70034460628167
3397.152,8.701149964469666
3397.156,8.694947504394948
3397.16,8.687903625317846
3397.164,8.689490301150913
3397.168,8.677686394574609
3397.172,8.647419351031703
3397.176,8.610613279813125
3397.1800000000003,8.569732336568714
3397.184,8.571042546158141
3397.188,8.660761852355224
3397.192,8.748678117832913
3397.196,8.819189030232712
3397.2000000000003,8.913259674699269
3397.204,8.952445759667446
3397.208,8.920844465992188
3397.212,8.88490385431892
3397.216,8.865515156449694
3397.2200000000003,8.849912844091198
3397.224,8.841234208095178
3397.228,8.849432033232693
3397.232,8.852821749785154
3397.236,8.813094752601158
3397.2400000000002,8.75345016560358
3397.244,8.699599349450986
3397.248,8.65613404784211
3397.252,8.641301032857223
3397.256,8.637755052775747
3397.26,8.636925654044825
3397.264,8.634293214594509
3397.268,8.632730579304367
3397.272,8.629809653338947
3397.2760000000003,8.62735751796057
3397.28,8.62278981480477
3397.284,8.613582286864393
3397.288,8.60890640126543
3397.292,8.611178232571866
3397.2960000000003,8.610276712212169
3397.3,8.612584604332994
3397.304,8.617560996718526
3397.308,8.61352218550708
3397.312,8.608678016107639
3397.3160000000003,8.602439495218535
3397.32,8.601501914044448
3397.324,8.596032690528952
3397.328,8.589193156066713
3397.332,8.58396433798047
3397.3360000000002,8.577978242792078
3397.34,8.57409569510965
3397.344,8.569564052768236
3397.348,8.56396260626665
3397.352,8.557375497505127
3397.356,8.550235456256324
3397.36,8.542855009578268
3397.364,8.536352042716985
3397.368,8.528827352781377
3397.372,8.522853277864451
3397.376,8.512227357891483
3397.38,8.499413748512318
3397.384,8.495062410242845
3397.388,8.494689781827503
3397.3920000000003,8.490206220571942
3397.396,8.484304267283788
3397.4,8.475733813730933
3397.404,8.470613178087852
3397.408,8.473389860795718
3397.4120000000003,8.475841996174095
3397.416,8.4795081789702
3397.42,8.48458073352743
3397.424,8.494124829068758
3397.428,8.501433154118038
3397.4320000000002,8.501096586517086
3397.436,8.50856117509538
3397.44,8.522120041305229
3397.444,8.534332637111264
3397.448,8.5467375572607
3397.452,8.56066905188589
3397.456,8.57776187790575
3397.46,8.593051663206218
3397.464,8.608473671492774
3397.468,8.623138402677187
3397.472,8.634052809165256
3397.476,8.641769823444266
3397.48,8.646974600987585
3397.484,8.651602405500698
3397.4880000000003,8.657396176345687
3397.492,8.657696683132253
3397.496,8.659872352266989
3397.5,8.66380298103527
3397.504,8.666880170529703
3397.5080000000003,8.669957360024137
3397.512,8.668611089620322
3397.516,8.668514927448621
3397.52,8.670161704639002
3397.524,8.67486163078089
3397.5280000000002,8.676724772857598
3397.532,8.672409495402514
3397.536,8.673323036033674
3397.54,8.675582847068648
3397.544,8.671628177757443
3397.5480000000002,8.671700299386218
3397.552,8.67412839422167
3397.556,8.675847293040826
3397.56,8.672313333230813
3397.564,8.668130278761817
3397.568,8.670113623553151
3397.572,8.675979516026915
3397.576,8.677181543173178
3397.58,8.67161615748598
3397.5840000000003,8.67019776545339
3397.588,8.670846860112372
3397.592,8.672000806172784
3397.596,8.667300880030895
3397.6,8.662228325473665
3397.6040000000003,8.665882487998305
3397.608,8.67065453576897
3397.612,8.671880603458158
3397.616,8.676219921456168
3397.62,8.676760833671986
3397.6240000000003,8.676484367428346
3397.628,8.67504193485283
3397.632,8.67595547548399
3397.636,8.677385887788043
3397.64,8.67138777232819
3397.6440000000002,8.67189262372962
3397.648,8.674140414493133
3397.652,8.675342441639396
3397.656,8.677590232402908
3397.66,8.681112171941459
3397.664,8.679044685249886
3397.668,8.677890739189474
3397.672,8.680727523254655
3397.676,8.683119557275718
3397.6800000000003,8.679477415022541
3397.684,8.67486163078089
3397.688,8.673238894133435
3397.692,8.678311448690666
3397.696,8.680511158368327
3397.7000000000003,8.677265685073417
3397.704,8.677686394574609
3397.708,8.68189348958653
3397.712,8.681112171941459
3397.716,8.680535198911253
3397.7200000000003,8.679693779908868
3397.724,8.681641063885815
3397.728,8.682025712572619
3397.732,8.68006640832421
3397.736,8.682109854472857
3397.7400000000002,8.682410361259423
3397.744,8.683648449220074
3397.748,8.686040483241138
3397.752,8.682686827503064
3397.756,8.683876834377864
3397.76,8.685379368310693
3397.764,8.685295226410455
3397.768,8.681869449043605
3397.772,8.67988610425227
3397.7760000000003,8.681821367957754
3397.78,8.673274954947823
3397.784,8.67111130608455
3397.788,8.67298646843272
3397.792,8.669825137038048
3397.7960000000003,8.667336940845283
3397.8,8.67390000906388
3397.804,8.682326219359185
3397.808,8.679008624435498
3397.812,8.670858880383834
3397.8160000000003,8.663250048547988
3397.82,8.662060041673188
3397.824,8.666231075870721
3397.828,8.674981833495517
3397.832,8.677205583716104
3397.8360000000002,8.676039617384228
3397.84,8.682230057187484
3397.844,8.678900441992335
3397.848,8.67390000906388
3397.852,8.67841963113383
3397.856,8.68696604414376
3397.86,8.697315497873086
3397.864,8.699923896780478
3397.868,8.693444970462119
3397.872,8.68970666603724
3397.876,8.688757064591693
3397.88,8.684754314194636
3397.884,8.683227739718882
3397.888,8.687518976631042
3397.8920000000003,8.690632226939863
3397.896,8.692759814988749
3397.9,8.688624841605604
3397.904,8.688456557805127
3397.908,8.685655834554334
3397.9120000000003,8.670991103369923
3397.916,8.646109141442276
3397.92,8.610348833840947
3397.924,8.567580707976903
3397.928,8.567568687705439
3397.9320000000002,8.645219641354041
3397.936,8.72093533129716
3397.94,8.788152689316195
3397.944,8.885625070606677
3397.948,8.920291533504907
3397.952,8.885204361105485
3397.956,8.846523127538736
3397.96,8.820330956021662
3397.964,8.806086934338444
3397.968,8.797684764586062
3397.972,8.80804623858685
3397.976,8.817950942272061
3397.98,8.786866520269694
3397.984,8.734241771806293
3397.9880000000003,8.698096815518157
3397.992,8.66088205506985
3397.996,8.642442958646173
3398.0,8.639425870509053
3398.004,8.631396329172015
3398.0080000000003,8.62269365263307
3398.012,8.614195320708987
3398.016,8.616106543871547
3398.02,8.616683516901753
3398.024,8.615217043783312
3398.0280000000002,8.61200763130279
3398.032,8.609459333752712
3398.036,8.60923094859492
3398.04,8.610565198727272
3398.044,8.605805171228072
3398.0480000000002,8.59410944709493
3398.052,8.591525088730465
3398.056,8.594253690352481
3398.06,8.591164480586587
3398.064,8.588604162765044
3398.068,8.586200108472518
3398.072,8.579637040253921
3398.076,8.57204022868954
3398.08,8.563686140023009
3398.0840000000003,8.557940450263871
3398.088,8.55089657118677
3398.092,8.54231409736245
3398.096,8.528743210881139
3398.1,8.527829670249979
3398.1040000000003,8.527072393147835
3398.108,8.52198781831914
3398.112,8.50655378976112
3398.116,8.498908897110887
3398.12,8.495855748159379
3398.1240000000003,8.490951477402625
3398.128,8.483883557782598
3398.132,8.473870671654225
3398.136,8.47174308360534
3398.14,8.467343664250016
3398.1440000000002,8.46051615005924
3398.148,8.454457933242074
3398.152,8.454289649441598
3398.156,8.462403332678875
3398.16,8.46704315746345
3398.164,8.472344097178471
3398.168,8.473449962153033
3398.172,8.477981604494445
3398.176,8.49110774093164
3398.1800000000003,8.50011092425715
3398.184,8.509054006225348
3398.188,8.518910628824706
3398.192,8.531171305716592
3398.196,8.546821699160937
3398.2000000000003,8.559647328811565
3398.204,8.580586641699469
3398.208,8.5958884472714
3398.212,8.604543042724496
3398.216,8.611250354200644
3398.2200000000003,8.621046875442689
3398.224,8.629965916867961
3398.228,8.63507453223958
3398.232,8.640952444984807
3398.236,8.646986621259048
3398.2400000000002,8.649883506681542
3398.244,8.656194149199424
3398.248,8.663298129633839
3398.252,8.667865832789639
3398.256,8.665990670441468
3398.26,8.657095669559121
3398.264,8.651482202786072
3398.268,8.655593135626292
3398.272,8.662336507916828
3398.2760000000003,8.66151912945737
3398.28,8.655845561327007
3398.284,8.651626446043624
3398.288,8.653080898890602
3398.292,8.652720290746723
3398.2960000000003,8.652864534004275
3398.3,8.659247298150932
3398.304,8.664704501394967
3398.308,8.660040636067466
3398.312,8.651638466315086
3398.3160000000003,8.645207621082578
3398.32,8.647070763159286
3398.324,8.648344911934325
3398.328,8.650676844598076
3398.332,8.650364317540047
3398.3360000000002,8.646433688771767
3398.34,8.64791218216167
3398.344,8.645772573841322
3398.348,8.648056425419222
3398.352,8.64850117546334
3398.356,8.655136365310712
3398.36,8.657119710102046
3398.364,8.654246865222477
3398.368,8.65247988531747
3398.372,8.652047155544816
3398.376,8.654331007122716
3398.38,8.655028182867548
3398.384,8.653681912463734
3398.388,8.65540081128289
3398.3920000000003,8.658934771092904
3398.396,8.661459028100056
3398.4,8.664067427007447
3398.404,8.668058157133041
3398.408,8.6676855287177
3398.4120000000003,8.663526514791629
3398.416,8.662637014703394
3398.42,8.660533467197434
3398.424,8.662841359318259
3398.428,8.664860764923981
3398.4320000000002,8.663598636420405
3398.436,8.663478433705778
3398.44,8.662961562032885
3398.444,8.665233393339323
3398.448,8.665425717682725
3398.452,8.669440488351244
3398.456,8.671928684544008
3398.46,8.672517677845677
3398.464,8.666495521842899
3398.468,8.663538535063092
3398.472,8.666832089443853
3398.476,8.670642515497507
3398.48,8.67938125285084
3398.484,8.67828740814774
3398.4880000000003,8.676027597112766
3398.492,8.67293838734687
3398.496,8.669620792423183
3398.5,8.671135346627475
3398.504,8.673250914404898
3398.5080000000003,8.673323036033674
3398.512,8.669176042379066
3398.516,8.6631178255619
3398.52,8.663538535063092
3398.524,8.66362267696333
3398.5280000000002,8.66590652854123
3398.532,8.672565758931528
3398.536,8.676568509328584
3398.54,8.67371970499194
3398.544,8.663959244564284
3398.5480000000002,8.650580682426375
3398.552,8.649066128222083
3398.556,8.651938973101652
3398.56,8.656759101958167
3398.564,8.662600953889006
3398.568,8.658057291276132
3398.572,8.663141866104825
3398.576,8.670257866810703
3398.58,8.669392407265393
3398.5840000000003,8.673274954947823
3398.588,8.678527813576993
3398.592,8.681809347686292
3398.596,8.683023395104017
3398.6,8.68326380053327
3398.6040000000003,8.683347942433508
3398.608,8.681292476013398
3398.612,8.673767786077791
3398.616,8.668058157133041
3398.62,8.671556056128667
3398.6240000000003,8.672012826444247
3398.628,8.672601819745916
3398.632,8.674741428066264
3398.636,8.678227306790427
3398.64,8.673887988792417
3398.6440000000002,8.660088717153316
3398.648,8.627201254431556
3398.652,8.590395183212976
3398.656,8.551737990189153
3398.66,8.549442118339792
3398.664,8.63685353241605
3398.668,8.74245161721527
3398.672,8.822999456286366
3398.676,8.922118614767227
3398.6800000000003,8.967110490851859
3398.684,8.938983055629299
3398.688,8.898679085415095
3398.692,8.881886766181799
3398.696,8.85937279773229
3398.7000000000003,8.845633627450502
3398.704,8.841438552710043
3398.708,8.83036788269296
3398.712,8.777094039570574
3398.716,8.71272548588818
3398.7200000000003,8.668154319304742
3398.724,8.633331592877498
3398.728,8.618029787305568
3398.732,8.611262374472107
3398.736,8.608605894478865
3398.7400000000002,8.606562448330216
3398.744,8.603821826436736
3398.748,8.602463535761459
3398.752,8.59525137288388
3398.756,8.594025305194693
3398.76,8.590299021041275
3398.764,8.584721615082614
3398.768,8.583627770379515
3398.772,8.582630087848116
3398.7760000000003,8.579024006409327
3398.78,8.57451640461084
3398.784,8.568506268879524
3398.788,8.561029660029769
3398.792,8.559046315238433
3398.7960000000003,8.555476294614031
3398.8,8.547747260063561
3398.804,8.543936834009907
3398.808,8.53975377954091
3398.812,8.533419096480104
3398.8160000000003,8.526158852516675
3398.82,8.519752047827092
3398.824,8.508897742696332
3398.828,8.494437356126788
3398.832,8.490254301657792
3398.8360000000002,8.485434172801277
3398.84,8.47640694893284
3398.844,8.464915569414565
3398.848,8.454349750798912
3398.852,8.446320209461874
3398.856,8.43575439084622
3398.86,8.42547705874567
3398.864,8.422111382736134
3398.868,8.412459104751639
3398.872,8.405186840516745
3398.876,8.402662583509594
3398.88,8.40118409011969
3398.884,8.39927286695713
3398.888,8.39772225193845
3398.8920000000003,8.396640427506815
3398.896,8.400811461704349
3398.9,8.413204361582322
3398.904,8.427099795393126
3398.908,8.436559749034217
3398.9120000000003,8.443327161867678
3398.916,8.4567658253629
3398.92,8.481034753445954
3398.924,8.499786376927657
3398.928,8.514366966211831
3398.9320000000002,8.527889771607292
3398.936,8.545607651743211
3398.94,8.560007936955444
3398.944,8.572220532761477
3398.948,8.5868492031315
3398.952,8.597210677132288
3398.956,8.605925373942696
3398.96,8.611118131214553
3398.964,8.615361287040864
3398.968,8.622272943131877
3398.972,8.629352883023367
3398.976,8.631408349443477
3398.98,8.633596038849676
3398.984,8.635543322826623
3398.9880000000003,8.634052809165256
3398.992,8.635471201197847
3398.996,8.635062511968117
3399.0,8.637202120288466
3399.004,8.6369016135019
3399.0080000000003,8.639510012409291
3399.012,8.642370837017397
3399.016,8.64334447900587
3399.02,8.640988505799195
3399.024,8.639942742181946
3399.0280000000002,8.638392127163266
3399.032,8.636925654044825
3399.036,8.636408782371932
3399.04,8.635723626898562
3399.044,8.633175329348484
3399.0480000000002,8.630723193970107
3399.052,8.630590970984018
3399.056,8.632430072517801
3399.06,8.628391261306357
3399.064,8.62365527435008
3399.068,8.627658024747136
3399.072,8.631660775144192
3399.076,8.633692201021377
3399.08,8.630903498042047
3399.0840000000003,8.626720443573051
3399.088,8.624941443396581
3399.092,8.62662428140135
3399.096,8.630338545283303
3399.1,8.635555343098085
3399.1040000000003,8.637370404088943
3399.108,8.634990390339341
3399.112,8.634377356494747
3399.116,8.632706538761441
3399.12,8.631624714329805
3399.1240000000003,8.629449045195068
3399.128,8.62598720701383
3399.132,8.625446294798012
3399.136,8.629689450624321
3399.14,8.639269606980038
3399.1440000000002,8.637370404088943
3399.148,8.632754619847292
3399.152,8.634281194323046
3399.156,8.634124930794032
3399.16,8.634377356494747
3399.164,8.637670910875508
3399.168,8.640639917926778
3399.172,8.641902046430355
3399.176,8.640639917926778
3399.1800000000003,8.639437890780515
3399.184,8.639978802996334
3399.188,8.643260337105632
3399.192,8.63845222852058
3399.196,8.63740646490333
3399.2000000000003,8.641108708513821
3399.204,8.64106062742797
3399.208,8.639077282636636
3399.212,8.637214140559928
3399.216,8.637166059474078
3399.2200000000003,8.637394444631868
3399.224,8.635062511968117
3399.228,8.635278876854445
3399.232,8.640159107068273
3399.236,8.638945059650547
3399.2400000000002,8.632021383288071
3399.244,8.629689450624321
3399.248,8.62954520736677
3399.252,8.628607626192684
3399.256,8.632538254960965
3399.26,8.642503060003486
3399.264,8.647431371303165
3399.268,8.641769823444266
3399.272,8.632261788717324
3399.2760000000003,8.623847598693482
3399.28,8.6209146524566
3399.284,8.623222544577425
3399.288,8.627249335517407
3399.292,8.627778227461762
3399.2960000000003,8.62525397045461
3399.3,8.628920153250712
3399.304,8.636420802643395
3399.308,8.636577066172409
3399.312,8.638259904177177
3399.3160000000003,8.641661641001102
3399.32,8.647166925330987
3399.324,8.654643534180744
3399.328,8.655545054540442
3399.332,8.654451209837342
3399.3360000000002,8.65352564893472
3399.34,8.652395743417232
3399.344,8.651482202786072
3399.348,8.649210371479635
3399.352,8.651025432470492
3399.356,8.653032817804752
3399.36,8.653645851649346
3399.364,8.651650486586549
3399.368,8.650304216182734
3399.372,8.645688431941084
3399.376,8.617332611560736
3399.38,8.578362891478882
3399.384,8.532721920735272
3399.388,8.500868201359296
3399.3920000000003,8.566174336215775
3399.396,8.690307679610372
3399.4,8.789018148861505
3399.404,8.894544112031948
3399.408,8.975572761961551
3399.4120000000003,8.960619544262036
3399.416,8.914149174787502
3399.42,8.898258375913901
3399.424,8.875059251991022
3399.428,8.85434832426091
3399.4320000000002,8.850261431963615
3399.436,8.838613788916325
3399.44,8.78305609421604
3399.444,8.706571106899313
3399.448,8.646794296915646
3399.452,8.606466286158515
3399.456,8.592270345561149
3399.46,8.58711364910368
3399.464,8.578555215822286
3399.468,8.57182386380321
3399.472,8.569359708153371
3399.476,8.563013004821102
3399.48,8.557772166463396
3399.484,8.559911774783744
3399.4880000000003,8.560284403199084
3399.492,8.555969125744001
3399.496,8.552795774077865
3399.5,8.5537814363378
3399.504,8.55546427434257
3399.5080000000003,8.550884550915306
3399.512,8.54555957065736
3399.516,8.53815508343638
3399.52,8.533731623538133
3399.524,8.527865731064368
3399.5280000000002,8.52308166302224
3399.532,8.517900926021847
3399.536,8.512467763320736
3399.54,8.507635614192758
3399.544,8.501409113575114
3399.5480000000002,8.49275451812202
3399.552,8.483655172624806
3399.556,8.475685732645083
3399.56,8.465552643802084
3399.564,8.453171764195574
3399.568,8.442389580693591
3399.572,8.431667498548924
3399.576,8.419527024371668
3399.58,8.409670401772308
3399.5840000000003,8.40046287383193
3399.588,8.391387568877645
3399.592,8.382131959851417
3399.596,8.37387403335659
3399.6,8.366325302878058
3399.6040000000003,8.362562957910253
3399.608,8.359185261629255
3399.612,8.355422916661452
3399.616,8.353103004269164
3399.62,8.35930546434388
3399.6240000000003,8.366036816362955
3399.628,8.372696046753253
3399.632,8.382708932881625
3399.636,8.396568305878038
3399.64,8.411557584391941
3399.6440000000002,8.426967572407037
3399.648,8.442593925308458
3399.652,8.459794933771484
3399.656,8.477933523408595
3399.66,8.494016646625596
3399.664,8.512732209292913
3399.668,8.528983616310391
3399.672,8.542842989306807
3399.676,8.553901639052429
3399.6800000000003,8.565633423999957
3399.684,8.578963905052014
3399.688,8.588916689823074
3399.692,8.595419656684358
3399.696,8.596753906816708
3399.7000000000003,8.600191704455023
3399.704,8.600384028798425
3399.708,8.603316975035305
3399.712,8.606165779371949
3399.716,8.607620232218927
3399.7200000000003,8.610312773026559
3399.724,8.611178232571866
3399.728,8.60986802298244
3399.732,8.609603577010263
3399.736,8.609843982439516
3399.7400000000002,8.610396914926797
3399.744,8.607451948418452
3399.748,8.605961434757084
3399.752,8.606406184801203
3399.756,8.606334063172426
3399.76,8.604879610325447
3399.764,8.601069184271793
3399.768,8.601213427529345
3399.772,8.601862522188327
3399.7760000000003,8.600732616670841
3399.78,8.60060039368475
3399.784,8.598857454322669
3399.788,8.598304521835388
3399.792,8.599386346267027
3399.7960000000003,8.600732616670841
3399.8,8.602355353318295
3399.804,8.603280914220917
3399.808,8.60099706264302
3399.812,8.598064116406135
3399.8160000000003,8.599169981380697
3399.82,8.601321609972508
3399.824,8.60306454933459
3399.828,8.603124650691903
3399.832,8.602764042548024
3399.8360000000002,8.603124650691903
3399.84,8.601994745174418
3399.844,8.601694238387852
3399.848,8.604110312951839
3399.852,8.60758417140454
3399.856,8.60890640126543
3399.86,8.607331745703824
3399.864,8.60676679294508
3399.868,8.608714076922027
3399.872,8.607211542989198
3399.876,8.607151441631887
3399.88,8.607644272761855
3399.884,8.611298435286495
3399.888,8.616419070929576
3399.8920000000003,8.613498144964154
3399.896,8.612572584061532
3399.9,8.615697854641816
3399.904,8.61936403743792
3399.908,8.618570699521387
3399.9120000000003,8.618005746762643
3399.916,8.61977272666765
3399.92,8.620373740240781
3399.924,8.619123632008668
3399.928,8.619123632008668
3399.9320000000002,8.620085253725678
3399.936,8.621082936257077
3399.94,8.618702922507476
3399.944,8.61698402368832
3399.948,8.618943327936728
3399.952,8.621756071458984
3399.956,8.62068626729881
3399.96,8.61590219925668
3399.964,8.613498144964154
3399.968,8.615060780254298
3399.972,8.619027469836967
3399.976,8.616779679073455
3399.98,8.611514800172822
3399.984,8.605228198197864
3399.9880000000003,8.604927691411298
3399.992,8.604579103538882
3399.996,8.607668313304778
3400.0,8.620614145670034
3400.004,8.627117112531318
3400.0080000000003,8.621106976800002
3400.012,8.60877417827934
3400.016,8.601670197844925
3400.02,8.599891197668457
3400.024,8.602247170875133
3400.0280000000002,8.60397808996575
3400.032,8.608233266063522
3400.036,8.607500029504303
3400.04,8.609242968866385
3400.044,8.616731597987604
3400.0480000000002,8.621960416073849
3400.052,8.627093071988392
3400.056,8.632273808988787
3400.06,8.63434129568036
3400.064,8.636769390515811
3400.068,8.635891910699039
3400.072,8.634317255137434
3400.076,8.632718559032904
3400.08,8.632934923919231
3400.0840000000003,8.634173011879883
3400.088,8.632983005005082
3400.092,8.630494808812317
3400.096,8.62908843705119
3400.1,8.631756937315894
3400.1040000000003,8.634954329524954
3400.108,8.633728261835765
3400.112,8.623811537879094
3400.116,8.597991994777361
3400.12,8.562916842649402
3400.1240000000003,8.514992020327888
3400.128,8.487056909448732
3400.132,8.55701488936125
3400.136,8.669079880207365
3400.14,8.758450598532033
3400.1440000000002,8.866200311923063
3400.148,8.945017231903542
3400.152,8.931157858907126
3400.156,8.890288935934176
3400.16,8.874470258689355
3400.164,8.854228121546281
3400.168,8.841450572981506
3400.172,8.844287357046687
3400.176,8.832375268027219
3400.1800000000003,8.773211491888144
3400.184,8.694130125935489
3400.188,8.63466584300985
3400.192,8.594710460668061
3400.196,8.579661080796848
3400.2000000000003,8.573650945065532
3400.204,8.569684255482864
3400.208,8.565501201013866
3400.212,8.560753193786127
3400.216,8.555981146015462
3400.2200000000003,8.550656165757518
3400.224,8.546701496446312
3400.228,8.544585928668889
3400.232,8.541592881074694
3400.236,8.537674272577876
3400.2400000000002,8.535366380457049
3400.244,8.530774636758325
3400.248,8.526555521474942
3400.252,8.524391872611666
3400.256,8.52225226429132
3400.26,8.515953642044899
3400.264,8.51190281056199
3400.268,8.50901794541096
3400.272,8.502250532577499
3400.2760000000003,8.494497457484101
3400.28,8.487056909448732
3400.284,8.481323239961057
3400.288,8.473413901338645
3400.292,8.465408400544533
3400.2960000000003,8.457078352420929
3400.3,8.447714560951539
3400.304,8.437160762607348
3400.308,8.428554248240104
3400.312,8.41876974726952
3400.3160000000003,8.40867271924091
3400.32,8.397049116736545
3400.324,8.389055636213893
3400.328,8.379800027187668
3400.332,8.374102418514381
3400.3360000000002,8.366385404235372
3400.34,8.358500106155883
3400.344,8.35797121421153
3400.348,8.359545869773132
3400.352,8.358415964255647
3400.356,8.35893283592854
3400.36,8.359269403529494
3400.364,8.36291154578267
3400.368,8.375076060502852
3400.372,8.385990466990922
3400.376,8.395582643618104
3400.38,8.408877063855773
3400.384,8.422532092237326
3400.388,8.43780985726633
3400.3920000000003,8.455551777945175
3400.396,8.473245617538169
3400.4,8.492838660022258
3400.404,8.511385938889099
3400.408,8.524391872611666
3400.4120000000003,8.538527711851723
3400.416,8.551966375346943
3400.42,8.563000984549639
3400.424,8.570609816385485
3400.428,8.575393884427614
3400.4320000000002,8.581163614729677
3400.436,8.587714662676811
3400.44,8.590996196786108
3400.444,8.59328004836401
3400.448,8.598520886721715
3400.452,8.604218495395003
3400.456,8.604975772497149
3400.46,8.606189819914876
3400.464,8.608533772850087
3400.468,8.609375191852472
3400.472,8.60786063764818
3400.476,8.603773745350885
3400.48,8.604302637295243
3400.484,8.604458900824255
3400.4880000000003,8.602980407434352
3400.492,8.60466324543912
3400.496,8.606177799643412
3400.5,8.60479546842521
3400.504,8.60352131965017
3400.5080000000003,8.6040261710516
3400.512,8.602499596575848
3400.516,8.601549995130298
3400.52,8.600576353141825
3400.524,8.597318859575452
3400.5280000000002,8.596537541930383
3400.532,8.59844876509294
3400.536,8.598821393508281
3400.54,8.597378960932767
3400.544,8.598088156949062
3400.5480000000002,8.59986715712553
3400.552,8.60054029232744
3400.556,8.598893515137059
3400.56,8.599843116582607
3400.564,8.604374758924017
3400.568,8.606526387515828
3400.572,8.607247603803588
3400.576,8.606454265887054
3400.58,8.60466324543912
3400.5840000000003,8.605600826613207
3400.588,8.608064982263045
3400.592,8.609771860810739
3400.596,8.609411252666861
3400.6,8.613281780077827
3400.6040000000003,8.613822692293645
3400.608,8.613858753108035
3400.612,8.612752888133473
3400.616,8.614447746409702
3400.62,8.61608250332862
3400.6240000000003,8.615529570841339
3400.628,8.618642821150162
3400.632,8.618510598164073
3400.636,8.618883226579415
3400.64,8.618991409022579
3400.6440000000002,8.616767658801992
3400.648,8.616863820973693
3400.652,8.61789756431948
3400.656,8.619063530651355
3400.66,8.620253537526155
3400.664,8.618162010291657
3400.668,8.617188368303184
3400.672,8.612223996189115
3400.676,8.610108428411694
3400.6800000000003,8.611202273114793
3400.684,8.614279462609225
3400.688,8.621167078157315
3400.692,8.630843396684734
3400.696,8.631083802113986
3400.7000000000003,8.625157808282909
3400.704,8.615313205955013
3400.708,8.610649340627512
3400.712,8.611310455557957
3400.716,8.610949847414078
3400.7200000000003,8.611562881258672
3400.724,8.61301733410565
3400.728,8.614736232924805
3400.732,8.618823125222102
3400.736,8.623054260776948
3400.7400000000002,8.627802268004688
3400.744,8.630711173698645
3400.748,8.633692201021377
3400.752,8.636541005358021
3400.756,8.637694951418434
3400.76,8.63735838381748
3400.764,8.636661208072647
3400.768,8.637490606803569
3400.772,8.637598789246733
3400.7760000000003,8.637430505446256
3400.78,8.636937674316288
3400.784,8.636108275585366
3400.788,8.63393260645063
3400.792,8.633596038849676
3400.7960000000003,8.63420907269427
3400.8,8.630831376413271
3400.804,8.61352218550708
3400.808,8.584180702866796
3400.812,8.551930314532555
3400.8160000000003,8.515016060870813
3400.82,8.522865298135914
3400.824,8.606141738829026
3400.828,8.683528246505448
3400.832,8.759448281063431
3400.8360000000002,8.853783371502164
3400.84,8.87193398141074
3400.844,8.832735876171098
3400.848,8.79881467010355
3400.852,8.781012648067392
3400.856,8.76282597734443
3400.86,8.753654510218443
3400.864,8.767213376428291
3400.868,8.774954431250226
3400.872,8.733051764931492
3400.876,8.676484367428346
3400.88,8.633776342921616
3400.884,8.599879177396994
3400.888,8.5868492031315
3400.8920000000003,8.583122918978084
3400.896,8.579865425411711
3400.9,8.579336533467355
3400.904,8.57738924949041
3400.908,8.573446600450668
3400.9120000000003,8.568566370236837
3400.916,8.566078174044074
3400.92,8.563433714322295
3400.924,8.559983896412518
3400.928,8.55743559886244
3400.9320000000002,8.552915976792493
3400.936,8.54929787508224
3400.94,8.54975464539782
3400.944,8.546461091017058
3400.948,8.541063989130336
3400.952,8.535714968329465
3400.956,8.533539299194729
3400.96,8.530209683999582
3400.964,8.52513712944235
3400.968,8.520256899228523
3400.972,8.514955959513498
3400.976,8.508164506137113
3400.98,8.501733660904604
3400.984,8.497803032136325
3400.9880000000003,8.492814619479333
3400.992,8.484640834884743
3400.996,8.47562563128777
3401.0,8.466682549319572
3401.004,8.45927806209859
3401.0080000000003,8.453688635868467
3401.012,8.446596675705512
3401.016,8.441740486034611
3401.02,8.436908336906633
3401.024,8.430357288959499
3401.0280000000002,8.425056349244477
3401.032,8.421762794863717
3401.036,8.418204794510775
3401.04,8.416882564649887
3401.044,8.41548821316022
3401.0480000000002,8.417651862023494
3401.052,8.420091977130411
3401.056,8.42502028843009
3401.06,8.434408120442406
3401.064,8.44128371571903
3401.068,8.448435777239297
3401.072,8.457162494321166
3401.076,8.469723677999617
3401.08,8.482417084664156
3401.0840000000003,8.494978268342605
3401.088,8.507539452021057
3401.092,8.521218520945531
3401.096,8.535137995299259
3401.1,8.548805043952273
3401.1040000000003,8.558409240850915
3401.108,8.568109599921257
3401.112,8.575718431757103
3401.116,8.583303223050025
3401.12,8.587702642405347
3401.1240000000003,8.589096993895012
3401.128,8.594265710623944
3401.132,8.599891197668457
3401.136,8.604843549511061
3401.14,8.604843549511061
3401.1440000000002,8.605384461726878
3401.148,8.607704374119168
3401.152,8.610577218998735
3401.156,8.607764475476479
3401.16,8.604458900824255
3401.164,8.604819508968134
3401.168,8.605961434757084
3401.172,8.605901333399773
3401.176,8.602703941190711
3401.1800000000003,8.60424253593793
3401.184,8.602776062819487
3401.188,8.599290184095326
3401.192,8.59739098120423
3401.196,8.596333197315518
3401.2000000000003,8.595575920213372
3401.204,8.593724798408127
3401.208,8.593881061937141
3401.212,8.592270345561149
3401.216,8.594181568723707
3401.2200000000003,8.59374883895105
3401.224,8.592546811804787
3401.228,8.591573169816316
3401.232,8.591525088730465
3401.236,8.592967521305981
3401.2400000000002,8.596056731071876
3401.244,8.596405318944292
3401.248,8.59644137975868
3401.252,8.597583305547632
3401.256,8.596225014872354
3401.26,8.596068751343338
3401.264,8.598869474594132
3401.268,8.600936961285706
3401.272,8.600756657213765
3401.2760000000003,8.601694238387852
3401.28,8.603533339921634
3401.284,8.603761725079423
3401.288,8.603280914220917
3401.292,8.60013160309771
3401.2960000000003,8.604302637295243
3401.3,8.607596191676004
3401.304,8.607427907875525
3401.308,8.607067299731646
3401.312,8.606923056474095
3401.3160000000003,8.60918286750907
3401.32,8.608882360722504
3401.324,8.605901333399773
3401.328,8.607139421360424
3401.332,8.608882360722504
3401.3360000000002,8.607956799819883
3401.34,8.604627184624732
3401.344,8.602403434404145
3401.348,8.602727981733636
3401.352,8.600696555856453
3401.356,8.603244853406531
3401.36,8.61310147600589
3401.364,8.621155057885852
3401.368,8.617380692646586
3401.372,8.60269192091925
3401.376,8.591392865744375
3401.38,8.588964770908925
3401.384,8.594085406552006
3401.388,8.594650359310748
3401.3920000000003,8.598917555679982
3401.396,8.603184752049218
3401.4,8.603256873677992
3401.404,8.604266576480853
3401.408,8.60722356326066
3401.4120000000003,8.615890178985218
3401.416,8.621046875442689
3401.42,8.62269365263307
3401.424,8.624268308194674
3401.428,8.625013565025357
3401.4320000000002,8.623991841951034
3401.436,8.62238112557504
3401.44,8.621659909287283
3401.444,8.622597490461368
3401.448,8.622729713447457
3401.452,8.622321024217728
3401.456,8.61977272666765
3401.46,8.61804180757703
3401.464,8.620073233454216
3401.468,8.61730857101781
3401.472,8.61453188830994
3401.476,8.602908285805576
3401.48,8.573037911220938
3401.484,8.538094982079066
3401.4880000000003,8.501361032489264
3401.492,8.506914397905
3401.496,8.594313791709794
3401.5,8.679068725792812
3401.504,8.750252773394518
3401.5080000000003,8.843770485373794
3401.512,8.869818413633316
3401.516,8.833048403229125
3401.52,8.799571947205695
3401.524,8.779462033048713
3401.5280000000002,8.758041909302303
3401.532,8.748101144802707
3401.536,8.757044226770905
3401.54,8.758979490476388
3401.544,8.719733304150896
3401.5480000000002,8.663250048547988
3401.552,8.620157375354454
3401.556,8.58035825654168
3401.56,8.565549282099717
3401.564,8.566174336215775
3401.568,8.564575640111245
3401.572,8.558926112523809
3401.576,8.554334368825081
3401.58,8.550175354899011
3401.5840000000003,8.54738665191968
3401.588,8.544766232740827
3401.592,8.542963192021432
3401.596,8.542049651390272
3401.6,8.53875609700951
3401.6040000000003,8.53458506281198
3401.608,8.53047412997176
3401.612,8.528863413595767
3401.616,8.528142197308007
3401.62,8.524331771254353
3401.6240000000003,8.519595784298078
3401.628,8.517035466476536
3401.632,8.511229675360084
3401.636,8.507996222336635
3401.64,8.503476600266687
3401.6440000000002,8.499846478284972
3401.648,8.494389275040938
3401.652,8.484640834884743
3401.656,8.476106442146275
3401.66,8.470492975373226
3401.664,8.462162927249622
3401.668,8.457955832237701
3401.672,8.450599426102569
3401.676,8.444000297069586
3401.6800000000003,8.43689631663517
3401.684,8.429660113214666
3401.688,8.422568153051714
3401.692,8.412639408823576
3401.696,8.405691691918177
3401.7000000000003,8.401532677992106
3401.704,8.397013055922155
3401.708,8.39260161629537
3401.712,8.394032028599424
3401.716,8.394969609773508
3401.7200000000003,8.394020008327962
3401.724,8.392769900095848
3401.728,8.396327900448787
3401.732,8.401063887405062
3401.736,8.40816786783948
3401.7400000000002,8.420428544731365
3401.744,8.43205214723573
3401.748,8.442714128023084
3401.752,8.455131068443983
3401.756,8.468269225152639
3401.76,8.485145686286174
3401.764,8.503236194837433
3401.768,8.514787675713023
3401.772,8.52825037975117
3401.7760000000003,8.538431549680022
3401.78,8.550836469829456
3401.784,8.558926112523809
3401.788,8.563614018394233
3401.792,8.570201127155755
3401.7960000000003,8.575309742527374
3401.8,8.577833999534526
3401.804,8.57939663482467
3401.808,8.582161297261075
3401.812,8.586103946300819
3401.8160000000003,8.586368392272997
3401.82,8.584889898883091
3401.824,8.585779398971326
3401.828,8.58921719660964
3401.832,8.59169337253094
3401.8360000000002,8.588135372178002
3401.84,8.587041527474902
3401.844,8.587798804577048
3401.848,8.587606480233648
3401.852,8.585851520600102
3401.856,8.581103513372364
3401.86,8.579240371295654
3401.864,8.579865425411711
3401.868,8.579697141611236
3401.872,8.576836317003128
3401.876,8.57518953981275
3401.88,8.5808991687575
3401.884,8.581728567488419
3401.888,8.579576938896608
3401.8920000000003,8.578230668492793
3401.896,8.578242688764258
3401.9,8.576896418360443
3401.904,8.575754492571493
3401.908,8.57707672243238
3401.9120000000003,8.578098445506706
3401.916,8.580875128214572
3401.92,8.58136795934454
3401.924,8.580346236270218
3401.928,8.580117851112426
3401.9320000000002,8.580454418713382
3401.936,8.580778966042871
3401.94,8.582005033732061
3401.944,8.585046162412105
3401.948,8.587390115347318
3401.952,8.586957385574665
3401.956,8.588471939778957
3401.96,8.589036892537699
3401.964,8.589397500681578
3401.968,8.588820527651373
3401.972,8.58849598032188
3401.976,8.588796487108446
3401.98,8.586356372001534
3401.984,8.586272230101295
3401.9880000000003,8.590359122398588
3401.992,8.59328004836401
3401.996,8.594962886368776
3402.0,8.594482075510273
3402.004,8.59328004836401
3402.0080000000003,8.593219947006697
3402.012,8.595599960756296
3402.016,8.595768244556773
3402.02,8.596285116229668
3402.024,8.595912487814324
3402.0280000000002,8.59391712275153
3402.032,8.592703075333802
3402.036,8.592318426647
3402.04,8.593364190264246
3402.044,8.59073175081393
3402.0480000000002,8.588772446565523
3402.052,8.587041527474902
3402.056,8.583519587936351
3402.06,8.581920891831821
3402.064,8.586716980145413
3402.068,8.598208359663687
3402.072,8.603533339921634
3402.076,8.599013717851683
3402.08,8.589397500681578
3402.0840000000003,8.580790986314334
3402.088,8.575754492571493
3402.092,8.576379546687548
3402.096,8.578531175279359
3402.1,8.58529858811282
3402.1040000000003,8.583171000063935
3402.108,8.583675851465365
3402.112,8.589337399324265
3402.116,8.592498730718937
3402.12,8.597715528533719
3402.1240000000003,8.602631819561937
3402.128,8.60808902280597
3402.132,8.60986802298244
3402.136,8.609170847237607
3402.14,8.607007198374335
3402.1440000000002,8.606165779371949
3402.148,8.607980840362806
3402.152,8.608641955293253
3402.156,8.606538407787292
3402.16,8.606874975388244
3402.164,8.608113063348895
3402.168,8.607776495747942
3402.172,8.607163461903347
3402.176,8.605360421183953
3402.1800000000003,8.599109880023384
3402.184,8.572244573304404
3402.188,8.53404415059616
3402.192,8.490855315230924
3402.196,8.461477771776252
3402.2000000000003,8.51760041923528
3402.204,8.629425004652143
3402.208,8.714756911765367
3402.212,8.809945441477948
3402.216,8.898414639442917
3402.2200000000003,8.897633321797846
3402.224,8.853615087701689
3402.228,8.832483450470383
3402.232,8.80858715080267
3402.236,8.782298817113896
3402.2400000000002,8.775591505637745
3402.244,8.771781079584093
3402.248,8.731981960771318
3402.252,8.662444690359992
3402.256,8.609519435110023
3402.26,8.570934363714978
3402.264,8.553673253894637
3402.268,8.548708881780572
3402.272,8.542410259534151
3402.2760000000003,8.535029812856097
3402.28,8.533226772136702
3402.284,8.530089481284953
3402.288,8.52614683224521
3402.292,8.525329453785751
3402.2960000000003,8.524848642927246
3402.3,8.51998043298488
3402.304,8.515352628471767
3402.308,8.511133513188383
3402.312,8.508044303422485
3402.3160000000003,8.505892674830674
3402.32,8.500916282445147
3402.324,8.49632453874642
3402.328,8.492586234321543
3402.332,8.487381456778223
3402.3360000000002,8.48224880086368
3402.34,8.476707455719406
3402.344,8.470180448315196
3402.348,8.465552643802084
3402.352,8.457511082193582
3402.356,8.450623466645496
3402.36,8.442269377978967
3402.364,8.434047512298527
3402.368,8.425717464174923
3402.372,8.417820145823972
3402.376,8.409297773356966
3402.38,8.39935700885737
3402.384,8.386879967079159
3402.388,8.378321533797765
3402.3920000000003,8.369306330200791
3402.396,8.362346593023927
3402.4,8.354749781459542
3402.404,8.345145584560901
3402.408,8.34129909769286
3402.4120000000003,8.338895043400333
3402.416,8.337128063495326
3402.42,8.334699968659875
3402.424,8.335192799789843
3402.428,8.335264921418617
3402.4320000000002,8.337452610824817
3402.436,8.34655195632203
3402.44,8.358440004798572
3402.444,8.368609154455957
3402.448,8.380076493431309
3402.452,8.39438061647184
3402.456,8.4089011043987
3402.46,8.426462721005604
3402.464,8.446139905389932
3402.468,8.462559596207889
3402.472,8.477200286849374
3402.476,8.49317522762321
3402.48,8.507130762791327
3402.484,8.515028081142276
3402.4880000000003,8.525173190256737
3402.492,8.534116272224937
3402.496,8.541544799988843
3402.5,8.547903523592575
3402.504,8.554995483755526
3402.5080000000003,8.56149845061681
3402.512,8.565765646986044
3402.516,8.567941316120782
3402.52,8.567304241733261
3402.524,8.569467890596535
3402.5280000000002,8.571042546158141
3402.532,8.567075856575473
3402.536,8.567905255306393
3402.54,8.570609816385485
3402.544,8.571403154302018
3402.5480000000002,8.572989830135088
3402.552,8.571523357016645
3402.556,8.567304241733261
3402.56,8.566546964631115
3402.564,8.567724951234455
3402.568,8.56451553875393
3402.572,8.560236322113234
3402.576,8.56104168030123
3402.58,8.563277450793281
3402.5840000000003,8.563433714322295
3402.588,8.561510470888273
3402.592,8.561486430345347
3402.596,8.564431396853694
3402.6,8.565116552327062
3402.6040000000003,8.561294106001945
3402.608,8.563289471064742
3402.612,8.563013004821102
3402.616,8.562952903463788
3402.62,8.561426328988036
3402.6240000000003,8.562508153419671
3402.628,8.567436464719352
3402.632,8.566715248431592
3402.636,8.565272815856078
3402.64,8.567556667433976
3402.6440000000002,8.571691640817123
3402.648,8.570970424529364
3402.652,8.568410106707823
3402.656,8.567917275577855
3402.66,8.569503951410923
3402.664,8.571487296202259
3402.668,8.571547397559572
3402.672,8.57246093819073
3402.676,8.572665282805595
3402.6800000000003,8.575093377641048
3402.684,8.578338850935957
3402.688,8.577064702160918
3402.692,8.579324513195893
3402.696,8.581440080973316
3402.7000000000003,8.584505250196289
3402.704,8.58355564875074
3402.708,8.58223341888985
3402.712,8.582041094546447
3402.716,8.582642108119579
3402.7200000000003,8.584168682595335
3402.724,8.585094243497956
3402.728,8.585671216528164
3402.732,8.586680919331023
3402.736,8.585322628655746
3402.7400000000002,8.586452534173233
3402.744,8.589649926382293
3402.748,8.589397500681578
3402.752,8.587882946477286
3402.756,8.590791852171243
3402.76,8.594361872795645
3402.764,8.5913207441156
3402.768,8.587750723491197
3402.772,8.59118852112951
3402.7760000000003,8.594145507909317
3402.78,8.594578237681974
3402.784,8.593268028092547
3402.788,8.597571285276167
3402.792,8.600492211241589
3402.7960000000003,8.599097859751922
3402.8,8.597186636589365
3402.804,8.595960568900175
3402.808,8.596188954057967
3402.812,8.599266143552398
3402.8160000000003,8.598040075863212
3402.82,8.593760859222513
3402.824,8.591092358957809
3402.828,8.591945798231656
3402.832,8.588892649280147
3402.8360000000002,8.582798371648595
3402.84,8.579937547040487
3402.844,8.579697141611236
3402.848,8.576920458903366
3402.852,8.578795621251539
3402.856,8.586176067929593
3402.86,8.590070635883487
3402.864,8.589481642581816
3402.868,8.588387797878717
3402.872,8.58073088495702
3402.876,8.579865425411711
3402.88,8.583663831193904
3402.884,8.5844691893819
3402.888,8.584132621780945
3402.8920000000003,8.583784033908529
3402.896,8.591116399500736
3402.9,8.597727548805183
3402.904,8.599398366538487
3402.908,8.604326677838166
3402.9120000000003,8.608004880905733
3402.916,8.610493077098496
3402.92,8.61195955021694
3402.924,8.614303503152152
3402.928,8.615421388398177
3402.9320000000002,8.615493510026951
3402.936,8.611262374472107
3402.94,8.610180550040468
3402.944,8.610793583885062
3402.948,8.608653975564716
3402.952,8.610168529769005
3402.956,8.613077435462962
3402.96,8.613966935551199
3402.964,8.607536090318689
3402.968,8.590791852171243
3402.972,8.565056450969749
3402.976,8.530666454315162
3402.98,8.493451693866852
3402.984,8.49472584264189
3402.9880000000003,8.573975492395022
3402.992,8.656554757343303
3402.996,8.735816427367899
3403.0,8.837291559055435
3403.004,8.870599731278388
3403.0080000000003,8.833144565400826
3403.012,8.797829007843614
3403.016,8.781842046798314
3403.02,8.764352551820185
3403.024,8.754243503520112
3403.0280000000002,8.763162544945386
3403.032,8.763174565216847
3403.036,8.72098341238301
3403.04,8.659475683308722
3403.044,8.615217043783312
3403.0480000000002,8.583026756806383
3403.052,8.56528483612754
3403.056,8.56117390328732
3403.06,8.55733943669074
3403.064,8.554418510725322
3403.068,8.549730604854894
3403.072,8.54715826676189
3403.076,8.545824016629538
3403.08,8.544261381339396
3403.0840000000003,8.541953489218571
3403.088,8.53710931981913
3403.092,8.536291941359671
3403.096,8.536844873846952
3403.1,8.534344657382725
3403.1040000000003,8.528262400022635
3403.108,8.525557838943543
3403.112,8.523983183381937
3403.116,8.520052554613658
3403.12,8.515448790643468
3403.1240000000003,8.513501506666522
3403.128,8.509138148125587
3403.132,8.502971748865257
3403.136,8.496625045532985
3403.14,8.49115582201749
3403.1440000000002,8.48389557805406
3403.148,8.47562563128777
3403.152,8.470637218630776
3403.156,8.465288197829906
3403.16,8.459314122912977
3403.164,8.451140338318389
3403.168,8.440899067032227
3403.172,8.437244904507587
3403.176,8.434528323157032
3403.1800000000003,8.428385964439627
3403.184,8.421798855678103
3403.188,8.414081841399094
3403.192,8.411641726292178
3403.196,8.409790604486933
3403.2000000000003,8.405162799973821
3403.204,8.401941367221836
3403.208,8.405439266217462
3403.212,8.408528475983356
3403.216,8.409958888287411
3403.2200000000003,8.412543246651875
3403.224,8.414911240130015
3403.228,8.424443315399884
3403.232,8.431439113391136
3403.236,8.437461269393914
3403.2400000000002,8.445550912088265
3403.244,8.455635919845413
3403.248,8.468762056282607
3403.252,8.482489206292932
3403.256,8.49590382924523
3403.26,8.508356830480515
3403.264,8.51859810176668
3403.268,8.528370582465799
3403.272,8.53742184687716
3403.2760000000003,8.549357976439554
3403.28,8.556546098774206
3403.284,8.563073106178416
3403.288,8.569143343267045
3403.292,8.572280634118792
3403.2960000000003,8.57776187790575
3403.3,8.578326830664494
3403.304,8.576235303429996
3403.308,8.578483094193508
3403.312,8.582666148662506
3403.3160000000003,8.583711912279755
3403.32,8.58295463517761
3403.324,8.582557966219342
3403.328,8.585731317885475
3403.332,8.58593566250034
3403.3360000000002,8.582545945947878
3403.34,8.579168249666878
3403.344,8.576559850759487
3403.348,8.5766199521168
3403.352,8.576848337274592
3403.356,8.57383124913747
3403.36,8.57569439121418
3403.364,8.576812276460203
3403.368,8.575670350671253
3403.372,8.575550147956628
3403.376,8.572749424705835
3403.38,8.570044863626743
3403.384,8.570129005526981
3403.388,8.570525674485246
3403.3920000000003,8.57094638398644
3403.396,8.572100330046851
3403.4,8.570742039371575
3403.404,8.570886282629127
3403.408,8.57208830977539
3403.4120000000003,8.573194174749952
3403.416,8.575225600627135
3403.42,8.577124803518231
3403.424,8.57570641148564
3403.428,8.573518722079442
3403.4320000000002,8.57579055338588
3403.436,8.575069337098121
3403.44,8.574889033026183
3403.444,8.57455246542523
3403.448,8.576391566959012
3403.452,8.576091060172446
3403.456,8.576740154831429
3403.46,8.581656445859645
3403.464,8.582293520247163
3403.468,8.581848770203047
3403.472,8.58324312169271
3403.476,8.584048479880707
3403.48,8.585214446212584
3403.484,8.584036459609244
3403.4880000000003,8.583171000063935
3403.492,8.587173750460993
3403.496,8.587738703219735
3403.5,8.587931027563137
3403.504,8.585563034085
3403.5080000000003,8.586308290915683
3403.512,8.588459919507494
3403.516,8.58895275063746
3403.52,8.58639243281592
3403.524,8.582125236446686
3403.5280000000002,8.5834715068505
3403.532,8.587317993718544
3403.536,8.588940730365998
3403.54,8.586536676073472
3403.544,8.582966655449072
3403.5480000000002,8.57779793872014
3403.552,8.574937114112034
3403.556,8.575730452028566
3403.56,8.58295463517761
3403.564,8.590395183212976
3403.568,8.593183886192309
3403.572,8.584000398794858
3403.576,8.57419185728135
3403.58,8.569227485167284
3403.5840000000003,8.566955653860845
3403.588,8.567580707976903
3403.592,8.570693958285725
3403.596,8.576403587230475
3403.6,8.576475708859249
3403.6040000000003,8.579144209123955
3403.608,8.581019371472124
3403.612,8.584252824495573
3403.616,8.58918113579525
3403.62,8.591981859046045
3403.6240000000003,8.594049345737616
3403.628,8.597006332517424
3403.632,8.597667447447868
3403.636,8.59597258917164
3403.64,8.596609663559157
3403.6440000000002,8.595960568900175
3403.648,8.595840366185548
3403.652,8.59456621741051
3403.656,8.59365267677935
3403.66,8.59483066338269
3403.664,8.59329206863547
3403.668,8.590900034614407
3403.672,8.5912245819439
3403.676,8.591116399500736
3403.6800000000003,8.574312059995975
3403.684,8.538191144250769
3403.688,8.49856030923847
3403.692,8.461802319105743
3403.696,8.485878922845394
3403.7000000000003,8.58145210124478
3403.704,8.663406312077003
3403.708,8.745348502637764
3403.712,8.836834788739855
3403.716,8.847845357399626
3403.7200000000003,8.804896927463641
3403.724,8.77218976881382
3403.728,8.754099260262562
3403.732,8.728099413088888
3403.736,8.721584425956141
3403.7400000000002,8.731633372898902
3403.744,8.72783496711671
3403.748,8.677710435117534
3403.752,8.62256142964698
3403.756,8.579528857810757
3403.76,8.54760301680601
3403.764,8.539272968682404
3403.768,8.534741326340992
3403.772,8.530245744813968
3403.7760000000003,8.527048352604908
3403.78,8.522552771077885
3403.784,8.51760041923528
3403.788,8.517696581406982
3403.792,8.515448790643468
3403.7960000000003,8.515016060870813
3403.8,8.513008675536552
3403.804,8.509859364413344
3403.808,8.50979926305603
3403.812,8.508777539981708
3403.8160000000003,8.502418816377975
3403.82,8.495675444087437
3403.824,8.494317153412162
3403.828,8.493199268166137
3403.832,8.486564078318763
3403.8360000000002,8.47927979381241
3403.84,8.476791597619643
3403.844,8.474207239255179
3403.848,8.468750036011144
3403.852,8.459975237843423
3403.856,8.452546710079517
3403.86,8.447438094707898
3403.864,8.440514418345423
3403.868,8.431631437734538
3403.872,8.4224118895227
3403.876,8.417062868721827
3403.88,8.409994949101797
3403.884,8.39881609664155
3403.888,8.38857482535539
3403.8920000000003,8.381506905735362
3403.896,8.373068675168593
3403.9,8.367960059796975
3403.904,8.365616106861761
3403.908,8.360639714476234
3403.9120000000003,8.356168173492135
3403.916,8.351372085178545
3403.92,8.348631463285063
3403.924,8.352237544723852
3403.928,8.359053038643165
3403.9320000000002,8.364426099986963
3403.936,8.37154210069284
3403.94,8.38177135170754
3403.944,8.393286771768741
3403.948,8.402001468579149
3403.952,8.413853456241304
3403.956,8.42908314018446
3403.96,8.445358587744863
3403.964,8.460215643272674
3403.968,8.473594205410585
3403.972,8.486696301304853
3403.976,8.500447491858104
3403.98,8.512383621420497
3403.984,8.523069642750777
3403.9880000000003,8.531459792231693
3403.992,8.539657617369208
3403.996,8.546184624773417
3404.0,8.551197077973336
3404.004,8.556065287915702
3404.0080000000003,8.560344504556397
3404.012,8.56304906563549
3404.016,8.563457754865219
3404.02,8.564166950881516
3404.024,8.564611700925632
3404.0280000000002,8.566042113229685
3404.032,8.564755944183183
3404.036,8.565056450969749
3404.04,8.565465140199478
3404.044,8.565885849700672
3404.0480000000002,8.565765646986044
3404.052,8.56145036953096
3404.056,8.5605368288998
3404.06,8.561197943830244
3404.064,8.559827632883506
3404.068,8.558601565194316
3404.072,8.559455004468163
3404.076,8.559346822024999
3404.08,8.558781869266255
3404.0840000000003,8.55660620013152
3404.088,8.55336072683661
3404.092,8.554526693168484
3404.096,8.554382449910932
3404.1,8.554118003938756
3404.1040000000003,8.554057902581443
3404.108,8.55624559198764
3404.112,8.555548416242807
3404.116,8.55423820665338
3404.12,8.553769416066338
3404.1240000000003,8.553601132265863
3404.128,8.554719017511887
3404.132,8.553625172808786
3404.136,8.553829517423651
3404.14,8.556413875788119
3404.1440000000002,8.556678321760295
3404.148,8.558433281393839
3404.152,8.558685707094554
3404.156,8.560548849171262
3404.16,8.563674119751548
3404.164,8.562496133148208
3404.168,8.563938565723724
3404.172,8.566667167345742
3404.176,8.566595045716966
3404.1800000000003,8.566847471417681
3404.184,8.565092511784137
3404.188,8.56423907251029
3404.192,8.565885849700672
3404.196,8.567123937661323
3404.2000000000003,8.56761676879129
3404.204,8.568470208065136
3404.208,8.571463255659332
3404.212,8.57383124913747
3404.216,8.573891350494785
3404.2200000000003,8.573626904522605
3404.224,8.571523357016645
3404.228,8.570609816385485
3404.232,8.568337985079049
3404.236,8.56578968752897
3404.2400000000002,8.566510903816727
3404.244,8.568265863450272
3404.248,8.569119302724118
3404.252,8.570237187970145
3404.256,8.570802140728887
3404.26,8.57254508009097
3404.264,8.574660647868392
3404.268,8.56972031629725
3404.272,8.571451235387869
3404.2760000000003,8.573194174749952
3404.28,8.571908005703449
3404.284,8.571511336745182
3404.288,8.574528424882303
3404.292,8.575802573657343
3404.2960000000003,8.575201560084212
3404.3,8.573807208594545
3404.304,8.57246093819073
3404.308,8.574203877552812
3404.312,8.574696708682781
3404.3160000000003,8.574227918095737
3404.32,8.573434580179205
3404.324,8.572701343619983
3404.328,8.572605181448282
3404.332,8.57286962742046
3404.3360000000002,8.573338418007504
3404.34,8.573855289680395
3404.344,8.572124370589776
3404.348,8.570309309598919
3404.352,8.570886282629127
3404.356,8.571883965160525
3404.36,8.574492364067916
3404.364,8.57387933022332
3404.368,8.573386499093354
3404.372,8.573843269408934
3404.376,8.572292654390255
3404.38,8.569756377111638
3404.384,8.566054133501147
3404.388,8.563409673779368
3404.3920000000003,8.561390268173646
3404.396,8.55784428809217
3404.4,8.553841537695114
3404.404,8.546244726130732
3404.408,8.547362611376755
3404.4120000000003,8.5583491394936
3404.416,8.562075423647018
3404.42,8.557651963748768
3404.424,8.553745375523413
3404.428,8.550668186028979
3404.4320000000002,8.551377382045274
3404.436,8.551293240145036
3404.44,8.550547983314354
3404.444,8.555981146015462
3404.448,8.556317713616417
3404.452,8.55893813279527
3404.456,8.565080491512676
3404.46,8.567436464719352
3404.464,8.573711046422844
3404.468,8.577954202249154
3404.472,8.580887148486035
3404.476,8.581740587759882
3404.48,8.57889178342324
3404.484,8.580334215998754
3404.4880000000003,8.581752608031346
3404.492,8.582485844590565
3404.496,8.580562601156545
3404.5,8.578663398265448
3404.504,8.579492796996371
3404.5080000000003,8.582305540518627
3404.512,8.584625452910913
3404.516,8.581920891831821
3404.52,8.571523357016645
3404.524,8.544165219167695
3404.5280000000002,8.50732308713473
3404.532,8.463485157110512
3404.536,8.442930492909412
3404.54,8.518922649096169
3404.544,8.638055559562313
3404.5480000000002,8.725995865582927
3404.552,8.826894024240259
3404.556,8.905975390192912
3404.56,8.890673584620982
3404.564,8.842965127185796
3404.568,8.830307781335646
3404.572,8.810149786092811
3404.576,8.787275209499423
3404.58,8.779233647890923
3404.5840000000003,8.764508815349199
3404.588,8.708698694948199
3404.592,8.635783728255875
3404.596,8.578362891478882
3404.6,8.536748711675251
3404.6040000000003,8.523442271166118
3404.608,8.519836189727329
3404.612,8.513621709381148
3404.616,8.508777539981708
3404.62,8.503644884067164
3404.6240000000003,8.498283842994828
3404.628,8.496024031959854
3404.632,8.494257052054849
3404.636,8.488775808267889
3404.64,8.485975085017095
3404.6440000000002,8.484785078142295
3404.648,8.483643152353345
3404.652,8.480097172271867
3404.656,8.476683415176481
3404.66,8.476743516533793
3404.664,8.472344097178471
3404.668,8.46493960995749
3404.672,8.459193920198352
3404.676,8.45270297360853
3404.6800000000003,8.446416371633575
3404.684,8.440586539974197
3404.688,8.43557408677428
3404.692,8.431427093119673
3404.696,8.421330065091063
3404.7000000000003,8.410523841046155
3404.704,8.402626522695204
3404.708,8.397229420808484
3404.712,8.388731088884404
3404.716,8.380617405647127
3404.7200000000003,8.370003505945624
3404.724,8.358584248056124
3404.728,8.347729942925366
3404.732,8.337152104038251
3404.736,8.329266805958765
3404.7400000000002,8.32052806860543
3404.744,8.314686216674591
3404.748,8.309986290532702
3404.752,8.304252621045027
3404.756,8.300069566576031
3404.76,8.29613893780775
3404.764,8.292412653654335
3404.768,8.291270727865385
3404.772,8.295573985049007
3404.7760000000003,8.300634519334775
3404.78,8.306127783393197
3404.784,8.316946027709566
3404.788,8.330985704777921
3404.792,8.345482152161853
3404.7960000000003,8.358836673756839
3404.8,8.373741810370502
3404.804,8.393707481269931
3404.808,8.413576989997663
3404.812,8.430333248416574
3404.8160000000003,8.444829695800507
3404.82,8.459662710785393
3404.824,8.476551192190392
3404.828,8.493836342553656
3404.832,8.50389730976788
3404.8360000000002,8.5114821010608
3404.84,8.52034104112876
3404.844,8.526795926904192
3404.848,8.526507440389091
3404.852,8.528623008166514
3404.856,8.534909610141469
3404.86,8.536748711675251
3404.864,8.540270651213802
3404.868,8.540823583701084
3404.872,8.542782887949494
3404.876,8.543708448852115
3404.88,8.542963192021432
3404.884,8.542278036548062
3404.888,8.541701063517856
3404.8920000000003,8.541136110759114
3404.896,8.542217935190749
3404.9,8.541316414831051
3404.904,8.540931766144249
3404.908,8.540907725601322
3404.9120000000003,8.540186509313566
3404.916,8.537133360362057
3404.92,8.535847191315554
3404.924,8.536003454844568
3404.928,8.535186076385111
3404.9320000000002,8.534573042540517
3404.936,8.536712650860864
3404.94,8.53875609700951
3404.944,8.537025177918894
3404.948,8.534404758740038
3404.952,8.533839805981295
3404.956,8.536628508960627
3404.96,8.537806495563963
3404.964,8.53746992796301
3404.968,8.539886002527
3404.972,8.540499036371592
3404.976,8.538768117280974
3404.98,8.53921286732509
3404.984,8.540511056643055
3404.9880000000003,8.541761164875169
3404.992,8.543480063694325
3404.996,8.542578543334628
3405.0,8.541051968858874
3405.004,8.54148469863153
3405.0080000000003,8.544994617898618
3405.012,8.54528310441372
3405.016,8.546112503144641
3405.02,8.546749577532163
3405.024,8.54965848322612
3405.0280000000002,8.552038496975719
3405.032,8.551088895530171
3405.036,8.550307577885102
3405.04,8.54916565209615
3405.044,8.551774051003541
3405.0480000000002,8.551509605031365
3405.052,8.55290395652103
3405.056,8.554081943124366
3405.06,8.55528397027063
3405.064,8.55538013244233
3405.068,8.555295990542092
3405.072,8.55624559198764
3405.076,8.559707430168878
3405.08,8.559214599038912
3405.0840000000003,8.559659349083029
3405.088,8.559791572069116
3405.092,8.559467024739627
3405.096,8.558781869266255
3405.1,8.557820247549246
3405.1040000000003,8.562436031790895
3405.108,8.563349572422055
3405.112,8.562303808804806
3405.116,8.560741173514664
3405.12,8.563085126449877
3405.1240000000003,8.565501201013866
3405.128,8.563577957579847
3405.132,8.56200330201824
3405.136,8.564034727895427
3405.14,8.563854423823486
3405.1440000000002,8.563169268350117
3405.148,8.561919160118004
3405.152,8.559887734240817
3405.156,8.558974193609659
3405.16,8.562279768261883
3405.164,8.565092511784137
3405.168,8.562700477763073
3405.172,8.561318146544872
3405.176,8.561534511431198
3405.1800000000003,8.561534511431198
3405.184,8.560031977498369
3405.188,8.56231582907627
3405.192,8.565465140199478
3405.196,8.564575640111245
3405.2000000000003,8.56259229531991
3405.204,8.562832700749164
3405.208,8.564924227983662
3405.212,8.564563619839781
3405.216,8.563998667081037
3405.2200000000003,8.563073106178416
3405.224,8.566546964631115
3405.228,8.566210397030162
3405.232,8.563577957579847
3405.236,8.560140159941533
3405.2400000000002,8.557219233976115
3405.244,8.554983463484064
3405.248,8.549814746755132
3405.252,8.546040381515867
3405.256,8.542542482520242
3405.26,8.535654866972152
3405.264,8.533527278923268
3405.268,8.539176806510705
3405.272,8.546268766673656
3405.2760000000003,8.546280786945118
3405.28,8.545078759798855
3405.284,8.542686725777793
3405.288,8.540126407956253
3405.292,8.54185732704687
3405.2960000000003,8.543419962337012
3405.3,8.546701496446312
3405.304,8.548564638523018
3405.308,8.552411125391062
3405.312,8.556065287915702
3405.3160000000003,8.554839220226512
3405.32,8.56040460591371
3405.324,8.566258478116012
3405.328,8.569972741997965
3405.332,8.573146093664102
3405.3360000000002,8.573975492395022
3405.34,8.57547802632785
3405.344,8.573410539636278
3405.348,8.572124370589776
3405.352,8.572713363891445
3405.356,8.573759127508694
3405.36,8.572424877376342
3405.364,8.571138708329842
3405.368,8.569371728424834
3405.372,8.571282951587394
3405.376,8.567640809334216
3405.38,8.543744509666505
3405.384,8.507094701976937
3405.388,8.464927589686026
3405.3920000000003,8.434275897456315
3405.396,8.490266321929253
3405.4,8.604555062995956
3405.404,8.699382984564659
3405.408,8.80251691371404
3405.4120000000003,8.89540957157726
3405.416,8.89322188217106
3405.42,8.846487066724348
3405.424,8.83041596377881
3405.428,8.817061442183824
3405.4320000000002,8.798345879516507
3405.436,8.791614527497435
3405.44,8.781144871053483
3405.444,8.730335183580937
3405.448,8.650917250027328
3405.452,8.588351737064329
3405.456,8.542855009578268
3405.46,8.521951757504754
3405.464,8.514871817613262
3405.468,8.510027648213821
3405.472,8.507599553378368
3405.476,8.504462262526623
3405.48,8.499570012041332
3405.484,8.49394452499682
3405.4880000000003,8.490446626001194
3405.492,8.487946409536967
3405.496,8.483534969910181
3405.5,8.477032003048897
3405.504,8.47823403019516
3405.5080000000003,8.479111510011933
3405.512,8.473510063510346
3405.516,8.468076900809235
3405.52,8.4658050695028
3405.524,8.463569299010748
3405.5280000000002,8.458292399838655
3405.532,8.454734399485716
3405.536,8.463629400368063
3405.54,8.480758287202313
3405.544,8.486059226917332
3405.5480000000002,8.481996375162964
3405.552,8.474748151470997
3405.556,8.46694699529175
3405.56,8.453844899397481
3405.564,8.4397811817862
3405.568,8.429924559186844
3405.572,8.415812760489713
3405.576,8.401424495548941
3405.58,8.388154115854196
3405.5840000000003,8.373393222498086
3405.588,8.360014660360177
3405.592,8.345518212976243
3405.596,8.329543272202404
3405.6,8.316068547892794
3405.6040000000003,8.309866087818076
3405.608,8.306560513165852
3405.612,8.303074634441689
3405.616,8.300297951733821
3405.62,8.297389046039864
3405.6240000000003,8.29750924875449
3405.628,8.299192086759259
3405.632,8.30157210050886
3405.636,8.309601641845898
3405.64,8.319253919830391
3405.6440000000002,8.33262046169684
3405.648,8.34591488193451
3405.652,8.362286491666614
3405.656,8.38118235840587
3405.66,8.397914576281853
3405.664,8.415560334788998
3405.668,8.435033174558463
3405.672,8.451549027548117
3405.676,8.466874873662972
3405.6800000000003,8.479496158698735
3405.684,8.492021281562797
3405.688,8.504798830127577
3405.692,8.515028081142276
3405.696,8.52024487895706
3405.7000000000003,8.524572176683606
3405.704,8.529921197484478
3405.708,8.53418839385371
3405.712,8.53778245502104
3405.716,8.542229955462213
3405.7200000000003,8.545932199072702
3405.724,8.54711018567604
3405.728,8.546088462601718
3405.732,8.544261381339396
3405.736,8.545992300430017
3405.7400000000002,8.545811996358076
3405.744,8.545908158529777
3405.748,8.545607651743211
3405.752,8.54432148269671
3405.756,8.542037631118811
3405.76,8.541592881074694
3405.764,8.541761164875169
3405.768,8.54148469863153
3405.772,8.54148469863153
3405.7760000000003,8.542506421705852
3405.78,8.541460658088603
3405.784,8.540499036371592
3405.788,8.541592881074694
3405.792,8.541869347318332
3405.7960000000003,8.5387921578239
3405.8,8.537590130677637
3405.804,8.539465293025806
3405.808,8.541063989130336
3405.812,8.539513374111657
3405.8160000000003,8.54066732017207
3405.82,8.542578543334628
3405.824,8.544405624596948
3405.828,8.545487449028586
3405.832,8.54601634097294
3405.8360000000002,8.547086145133115
3405.84,8.547170287033353
3405.844,8.543636327223341
3405.848,8.542518441977315
3405.852,8.546461091017058
3405.856,8.550163334627548
3405.86,8.551329300959424
3405.864,8.55084849010092
3405.868,8.551377382045274
3405.872,8.553204463307596
3405.876,8.553961740409742
3405.88,8.555476294614031
3405.884,8.559382882839387
3405.888,8.55848136247969
3405.8920000000003,8.55784428809217
3405.896,8.557724085377545
3405.9,8.55866166655163
3405.904,8.560753193786127
3405.908,8.561294106001945
3405.9120000000003,8.56154653170266
3405.916,8.562736538577461
3405.92,8.562472092605285
3405.924,8.561209964101707
3405.928,8.561474410073886
3405.9320000000002,8.562916842649402
3405.936,8.563950585995187
3405.94,8.564034727895427
3405.944,8.562700477763073
3405.948,8.56259229531991
3405.952,8.564792004997571
3405.956,8.568662532408538
3405.96,8.565164633412913
3405.964,8.562472092605285
3405.968,8.564203011695902
3405.972,8.563662099480084
3405.976,8.561282085730483
3405.98,8.562291788533344
3405.984,8.564094829252738
3405.9880000000003,8.56477998472611
3405.992,8.564792004997571
3405.996,8.565669484814345
3406.0,8.566162315944311
3406.004,8.568422126979286
3406.0080000000003,8.569083241909732
3406.012,8.567580707976903
3406.016,8.568446167522211
3406.02,8.569395768967759
3406.024,8.568614451322688
3406.0280000000002,8.569383748696298
3406.032,8.567172018747174
3406.036,8.567640809334216
3406.04,8.567075856575473
3406.044,8.564154930610052
3406.0480000000002,8.56226774799042
3406.052,8.563974626538114
3406.056,8.567785052591768
3406.06,8.569936681183579
3406.064,8.56578968752897
3406.068,8.564070788709815
3406.072,8.5638183630091
3406.076,8.564215031967365
3406.08,8.564840086083422
3406.0840000000003,8.564082808981277
3406.088,8.565453119928016
3406.092,8.564924227983662
3406.096,8.561053700572693
3406.1,8.556437916331042
3406.1040000000003,8.553120321407356
3406.108,8.54929787508224
3406.112,8.54358824613749
3406.116,8.54272278659218
3406.12,8.550331618428025
3406.1240000000003,8.554983463484064
3406.128,8.554514672897023
3406.132,8.554045882309978
3406.136,8.54898534802421
3406.14,8.545884117986851
3406.1440000000002,8.54450178676865
3406.148,8.54518694224202
3406.152,8.550043131912924
3406.156,8.553336686293683
3406.16,8.559479045011088
3406.164,8.561149862744394
3406.168,8.562123504732869
3406.172,8.567544647162514
3406.176,8.572605181448282
3406.1800000000003,8.573446600450668
3406.184,8.5766199521168
3406.188,8.578314810393032
3406.192,8.578002283335005
3406.196,8.577521472476498
3406.2000000000003,8.57867541853691
3406.204,8.580658763328247
3406.208,8.579877445683174
3406.212,8.57825470903572
3406.216,8.576800256188742
3406.2200000000003,8.579360574010282
3406.224,8.578014303606466
3406.228,8.570044863626743
3406.232,8.548192010107678
3406.236,8.517275871905788
3406.2400000000002,8.479111510011933
3406.244,8.445851418874831
3406.248,8.49184097749086
3406.252,8.595263393155342
3406.256,8.677662354031684
3406.26,8.767057112899277
3406.264,8.850297492778003
3406.268,8.848133843914729
3406.272,8.80772169125736
3406.2760000000003,8.78511156063615
3406.28,8.770963701124632
3406.284,8.752933293930685
3406.288,8.75391895619062
3406.292,8.760914754181874
3406.2960000000003,8.73646552202688
3406.3,8.671327670970877
3406.304,8.61639503038665
3406.308,8.571535377288109
3406.312,8.542855009578268
3406.3160000000003,8.535041833127558
3406.32,8.53376768435252
3406.324,8.530666454315162
3406.328,8.526952190433207
3406.332,8.521326703388695
3406.3360000000002,8.519355378868825
3406.34,8.51719173000555
3406.344,8.51326110123727
3406.348,8.509462695455078
3406.352,8.507275006048879
3406.356,8.505856614016288
3406.36,8.504378120626384
3406.364,8.503849228682029
3406.368,8.499521930955481
3406.372,8.496516863089823
3406.376,8.494557558841414
3406.38,8.492658355950319
3406.384,8.487633882478939
3406.388,8.484364368641103
3406.3920000000003,8.477404631464239
3406.396,8.470817522702717
3406.4,8.462860102994455
3406.404,8.459362203998827
3406.408,8.454073284555271
3406.4120000000003,8.445731216160205
3406.416,8.436475607133977
3406.42,8.429311525342248
3406.424,8.422255625993683
3406.428,8.412110516879222
3406.4320000000002,8.40402087418487
3406.436,8.394056069142348
3406.44,8.38534137233194
3406.444,8.3759294997767
3406.448,8.36875339771351
3406.452,8.364426099986963
3406.456,8.359473748144358
3406.46,8.350783091876874
3406.464,8.3438594155144
3406.468,8.342320820767181
3406.472,8.342477084296195
3406.476,8.343643050628073
3406.48,8.348883888985778
3406.484,8.355026247703185
3406.4880000000003,8.36217830922345
3406.492,8.368200465226229
3406.496,8.375304445660644
3406.5,8.386711683278682
3406.504,8.39881609664155
3406.5080000000003,8.411653746563642
3406.512,8.428734552312044
3406.516,8.445322526930475
3406.52,8.459242001284203
3406.524,8.472788847222587
3406.5280000000002,8.486528017504376
3406.532,8.498824755210649
3406.536,8.510580580701102
3406.54,8.521519027732097
3406.544,8.529272102825496
3406.5480000000002,8.534801427698305
3406.552,8.541953489218571
3406.556,8.546304827488045
3406.56,8.549610402140269
3406.564,8.55117303743041
3406.568,8.553649213351713
3406.572,8.556077308187163
3406.576,8.556522058231282
3406.58,8.558361159765065
3406.5840000000003,8.557591862391455
3406.588,8.556858625832236
3406.592,8.557183173161725
3406.596,8.55779620700632
3406.6,8.559382882839387
3406.6040000000003,8.558998234152583
3406.608,8.556918727189549
3406.612,8.554442551268245
3406.616,8.553541030908548
3406.62,8.555223868913316
3406.6240000000003,8.556269632530567
3406.628,8.557002869089786
3406.632,8.556389835245191
3406.636,8.55688266637516
3406.64,8.55491134185529
3406.6440000000002,8.551978395618406
3406.648,8.551966375346943
3406.652,8.553348706565147
3406.656,8.55536811217087
3406.66,8.554081943124366
3406.664,8.55084849010092
3406.668,8.551449503674052
3406.672,8.55533205135648
3406.676,8.558853990895031
3406.6800000000003,8.560296423470547
3406.684,8.561029660029769
3406.688,8.563313511607667
3406.692,8.563914525180799
3406.696,8.5638183630091
3406.7000000000003,8.566919593046457
3406.704,8.56771293096299
3406.708,8.567015755218158
3406.712,8.566631106531355
3406.716,8.563830383280562
3406.7200000000003,8.566486863273804
3406.724,8.568566370236837
3406.728,8.568866877023403
3406.732,8.570850221814737
3406.736,8.572364776019029
3406.7400000000002,8.575069337098121
3406.744,8.57593479664343
3406.748,8.576475708859249
3406.752,8.576331465601697
3406.756,8.577581573833811
3406.76,8.577353188676023
3406.764,8.578146526592556
3406.768,8.578939864509088
3406.772,8.578362891478882
3406.7760000000003,8.57875956043715
3406.78,8.57934855373882
3406.784,8.582293520247163
3406.788,8.5833753446788
3406.792,8.584733635354077
3406.7960000000003,8.58552697327061
3406.8,8.585575054356461
3406.804,8.586969405846128
3406.808,8.585923642228877
3406.812,8.583723932551216
3406.8160000000003,8.58401241906632
3406.82,8.58634435173007
3406.824,8.588832547922834
3406.828,8.588219514078242
3406.832,8.58757041941926
3406.8360000000002,8.588387797878717
3406.84,8.5879430478346
3406.844,8.590287000769813
3406.848,8.593027622663294
3406.852,8.592546811804787
3406.856,8.591981859046045
3406.86,8.591104379229272
3406.864,8.590599527827841
3406.868,8.592715095605266
3406.872,8.594409953881495
3406.876,8.593520453793262
3406.88,8.591525088730465
3406.884,8.594397933610033
3406.888,8.595311474241193
3406.8920000000003,8.593424291621561
3406.896,8.593893082208602
3406.9,8.597078454146201
3406.904,8.597559265004705
3406.908,8.595768244556773
3406.9120000000003,8.595828345914088
3406.916,8.59533551478412
3406.92,8.593664697050812
3406.924,8.594121467366394
3406.928,8.590755791356855
3406.9320000000002,8.585695257071087
3406.936,8.581391999887465
3406.94,8.57820662794987
3406.944,8.574852972211795
3406.948,8.575177519541285
3406.952,8.583110898706623
3406.956,8.588892649280147
3406.96,8.583940297437543
3406.964,8.58017795246974
3406.968,8.576451668316325
3406.972,8.573626904522605
3406.976,8.574131755924036
3406.98,8.576451668316325
3406.984,8.580526540342156
3406.9880000000003,8.581944932374746
3406.992,8.585226466484045
3406.996,8.589481642581816
3407.0,8.5913207441156
3407.004,8.597511183918854
3407.0080000000003,8.601309589701046
3407.012,8.602824143905337
3407.016,8.605829211770995
3407.02,8.608690036379102
3407.024,8.609254989137847
3407.0280000000002,8.606586488873141
3407.032,8.60579315095661
3407.036,8.606526387515828
3407.04,8.605660927970519
3407.044,8.6037376845365
3407.0480000000002,8.607824576833792
3407.052,8.610288732483632
3407.056,8.610733482527749
