3350.0,2.7914676417669817
3350.004,2.789520357790036
3350.0080000000003,2.792285020226441
3350.012,2.7909868309084764
3350.016,2.7911791552518785
3350.02,2.793018256785661
3350.024,2.7944005880038647
3350.0280000000002,2.795662716507441
3350.032,2.795422311078188
3350.036,2.7930422973285864
3350.04,2.7929461351568854
3350.044,2.794052000131448
3350.0480000000002,2.7937995744307327
3350.052,2.794052000131448
3350.056,2.7956506962359784
3350.06,2.7963478719808106
3350.064,2.7966123179529885
3350.068,2.796011304379857
3350.072,2.7951097840201595
3350.076,2.794160182574612
3350.08,2.795482412435501
3350.0840000000003,2.7979345478138784
3350.088,2.7969128247395543
3350.092,2.794689074518968
3350.096,2.791876330996711
3350.1,2.790758445750687
3350.1040000000003,2.7879457022284306
3350.108,2.790061270005854
3350.112,2.8014324468095038
3350.116,2.8069377311393895
3350.12,2.804377413317849
3350.1240000000003,2.795446351621113
3350.128,2.784748310019371
3350.132,2.779928181162856
3350.136,2.781743242153713
3350.14,2.7823442557268447
3350.1440000000002,2.7853132627781148
3350.148,2.788041864400132
3350.152,2.7886789387876516
3350.156,2.7916239052959964
3350.16,2.7953862502638005
3350.164,2.7988360681735758
3350.168,2.802249825268963
3350.172,2.80698581222524
3350.176,2.810712096378656
3350.1800000000003,2.8110606842510717
3350.184,2.8114333126664133
3350.188,2.810279366606001
3350.192,2.808933096202186
3350.196,2.808993197559499
3350.2000000000003,2.8069978324967026
3350.204,2.8066011635384354
3350.208,2.805483278292411
3350.212,2.8051467106914574
3350.216,2.8049063052622047
3350.2200000000003,2.8043653930463863
3350.224,2.804401453860774
3350.228,2.803139325357198
3350.232,2.7984754600296964
3350.236,2.777211599812301
3350.2400000000002,2.7448530290348963
3350.244,2.7077224104868263
3350.248,2.675363839709422
3350.252,2.711220309482452
3350.256,2.8092336029887517
3350.26,2.891043570563424
3350.264,2.9726011124373812
3350.268,3.0516584378471103
3350.272,3.0423547477350334
3350.2760000000003,2.99648539183363
3350.28,2.9667352199636166
3350.284,2.940254561931438
3350.288,2.9162861406349507
3350.292,2.911345809063809
3350.2960000000003,2.9123074307808197
3350.3,2.9035326326130986
3350.304,2.857110344224414
3350.308,2.819991745947808
3350.312,2.7877774184279542
3350.3160000000003,2.7665135582105584
3350.32,2.760563523836556
3350.324,2.7567651180543646
3350.328,2.7529667122721726
3350.332,2.7513439756247178
3350.3360000000002,2.7507910431374367
3350.34,2.7478340563576293
3350.344,2.745778589937519
3350.348,2.744264035733227
3350.352,2.7424129139279816
3350.356,2.74089835972369
3350.36,2.739167440633071
3350.364,2.7356214605515947
3350.368,2.7332775076163816
3350.372,2.7319432574840294
3350.376,2.730092135678784
3350.38,2.7284453584884036
3350.384,2.726317770439518
3350.388,2.7246589729776747
3350.3920000000003,2.7218702699983446
3350.396,2.716581350554786
3350.4,2.7135522421462026
3350.404,2.7111001067678258
3350.408,2.7079387753731536
3350.4120000000003,2.7031186465166384
3350.416,2.697192652685561
3350.42,2.6931298009311915
3350.424,2.684727631178812
3350.428,2.6785732521899446
3350.4320000000002,2.6718779609852588
3350.436,2.6639085210055335
3350.44,2.6555544323390046
3350.444,2.6500251074661936
3350.448,2.6450366948092014
3350.452,2.6387621131057077
3350.456,2.6299873149379867
3350.46,2.6227511115174824
3350.464,2.6144811647511914
3350.468,2.608194562776235
3350.472,2.603254231205094
3350.476,2.595993987241664
3350.48,2.590608905626405
3350.484,2.5870869660878535
3350.4880000000003,2.584779073967028
3350.492,2.584755033424103
3350.496,2.5877360607468356
3350.5,2.5907050677981056
3350.504,2.594022662721792
3350.5080000000003,2.5980494536617744
3350.512,2.6036268596204355
3350.516,2.6111275090131176
3350.52,2.6218976722436356
3350.524,2.6306364095969688
3350.5280000000002,2.6419354647718425
3350.532,2.6545687700790688
3350.536,2.6688127917622873
3350.54,2.683453482403773
3350.544,2.6964233553119525
3350.5480000000002,2.7070612955563815
3350.552,2.719117627833401
3350.556,2.729899811335382
3350.56,2.7393237041620857
3350.564,2.7456824277658183
3350.568,2.751776705397372
3350.572,2.7560318814951437
3350.576,2.757197847827019
3350.58,2.760888071166047
3350.5840000000003,2.7622463618413247
3350.588,2.7648066796628648
3350.592,2.7669102271688253
3350.596,2.7672708353127047
3350.6,2.766297193324231
3350.6040000000003,2.7668621460829748
3350.608,2.769302261189889
3350.612,2.7708648964800315
3350.616,2.767439119113181
3350.62,2.76779972725706
3350.6240000000003,2.767535281284882
3350.628,2.765864463551577
3350.632,2.764217686361196
3350.636,2.7613448414816273
3350.64,2.7596620034768584
3350.6440000000002,2.7605034224792426
3350.648,2.760347158950229
3350.652,2.759998571077812
3350.656,2.7593254358759047
3350.66,2.760226956235602
3350.664,2.760587564379481
3350.668,2.761212618495538
3350.672,2.7610683752379868
3350.676,2.7601307940639015
3350.6800000000003,2.760371199493154
3350.684,2.7614530239247905
3350.688,2.7623064631986374
3350.692,2.7628353551429936
3350.696,2.7628113146000683
3350.7000000000003,2.76117655768115
3350.704,2.760527463022168
3350.708,2.763292125458573
3350.712,2.7632560646441853
3350.716,2.762787274057143
3350.7200000000003,2.7643378890758226
3350.724,2.7653355716072205
3350.728,2.7665736595678716
3350.732,2.7661409297952173
3350.736,2.763556571430751
3350.7400000000002,2.764794659391402
3350.744,2.767763666442672
3350.748,2.768761348974071
3350.752,2.7673790177558684
3350.756,2.7685449840877436
3350.76,2.7690257949462485
3350.764,2.769915295034483
3350.768,2.768749328702608
3350.772,2.7673429569414805
3350.7760000000003,2.7666457811966474
3350.78,2.7674992204704942
3350.784,2.7676434637280463
3350.788,2.7682805381155657
3350.792,2.769266200375501
3350.7960000000003,2.7706725721366294
3350.8,2.7704201464359137
3350.804,2.771465910053163
3350.808,2.771970761454593
3350.812,2.772331369598472
3350.8160000000003,2.7715500519534015
3350.82,2.7698672139486327
3350.824,2.77168227493949
3350.828,2.7718745992828926
3350.832,2.76962680851938
3350.8360000000002,2.7697229706910815
3350.84,2.772042883083369
3350.844,2.7723554101413974
3350.848,2.771201464080985
3350.852,2.7706124707793163
3350.856,2.7690257949462485
3350.86,2.7680761935007006
3350.864,2.7650350648206548
3350.868,2.756464611267799
3350.872,2.7507670025945115
3350.876,2.7552145030356847
3350.88,2.753579746116767
3350.884,2.7497092187057994
3350.888,2.7601067535209762
3350.8920000000003,2.76802811241485
3350.896,2.76483072020579
3350.9,2.7625949497137405
3350.904,2.759421598047606
3350.908,2.753110955529724
3350.9120000000003,2.752137313541251
3350.916,2.7547457124486425
3350.92,2.7564045099104852
3350.924,2.755827536880279
3350.928,2.7560318814951437
3350.9320000000002,2.7599264494490363
3350.936,2.764349909347285
3350.94,2.768977713860398
3350.944,2.774182491403718
3350.948,2.7778486741998205
3350.952,2.780829701522553
3350.956,2.782043748940279
3350.96,2.782921228757051
3350.964,2.7818514245968764
3350.968,2.7814667759100726
3350.972,2.7826447625134105
3350.976,2.7818033435110263
3350.98,2.781250411023745
3350.984,2.780721519079389
3350.9880000000003,2.781010005594492
3350.992,2.780481113650137
3350.996,2.7809258636942538
3351.0,2.7800003027916316
3351.004,2.775673005065084
3351.0080000000003,2.7556592530798025
3351.012,2.719382073805579
3351.016,2.6790660833199125
3351.02,2.645409323224543
3351.024,2.692877375230476
3351.0280000000002,2.8162654617943916
3351.032,2.9251691212458355
3351.036,3.0310196317457714
3351.04,3.1311364727580315
3351.044,3.141834514359774
3351.0480000000002,3.0957127327576557
3351.052,3.0705543045863672
3351.056,3.040203119143222
3351.06,3.0048034196857714
3351.064,2.9782987211106686
3351.068,2.950724218375391
3351.072,2.889865583960086
3351.076,2.8318677741528875
3351.08,2.7787622148309805
3351.0840000000003,2.7472330427844978
3351.088,2.7356575213659826
3351.092,2.7309455749526315
3351.096,2.727303432699454
3351.1,2.7251277635647173
3351.1040000000003,2.7209206685527962
3351.108,2.717819438515437
3351.112,2.7151148774363447
3351.116,2.712302133914089
3351.12,2.711160208125139
3351.1240000000003,2.710667376995171
3351.128,2.7069651333846805
3351.132,2.703647538460994
3351.136,2.699704889421251
3351.14,2.696904166170458
3351.1440000000002,2.695690118752732
3351.148,2.6938510172189494
3351.152,2.6906295844669645
3351.156,2.688057246373961
3351.16,2.684559347378335
3351.164,2.679342549563553
3351.168,2.675063332922856
3351.172,2.6716495758274688
3351.176,2.667358338915309
3351.1800000000003,2.6624059870727046
3351.184,2.6570329257289083
3351.188,2.6516718846565746
3351.192,2.645048715080664
3351.196,2.6370672548294762
3351.2000000000003,2.628797308063186
3351.204,2.6214529221995178
3351.208,2.6145653066514303
3351.212,2.6044682786228197
3351.216,2.5966310616291834
3351.2200000000003,2.5867383782154376
3351.224,2.576737512358528
3351.228,2.5655105788124293
3351.232,2.5575651793756298
3351.236,2.5496919015676065
3351.2400000000002,2.540857002042572
3351.244,2.5318658389885234
3351.248,2.524773878825571
3351.252,2.5205066824563365
3351.256,2.51901616879497
3351.26,2.5172131280755754
3351.264,2.5168885807460843
3351.268,2.5185593984793897
3351.272,2.5225501286049834
3351.2760000000003,2.52541095321309
3351.28,2.528740568408239
3351.284,2.539017900508789
3351.288,2.5521079761315955
3351.292,2.5660635112997103
3351.2960000000003,2.5802594518970787
3351.3,2.5959699466987387
3351.304,2.614240759321939
3351.308,2.6306844906828193
3351.312,2.6469358977002977
3351.3160000000003,2.6631873047177756
3351.32,2.678525171104094
3351.324,2.6926970711585367
3351.328,2.703515315474905
3351.332,2.7138888097471563
3351.3360000000002,2.7214615807686147
3351.34,2.729539203191503
3351.344,2.7342872104192426
3351.348,2.7384462243453136
3351.352,2.74363898161717
3351.356,2.746607988668441
3351.36,2.749721238977262
3351.364,2.75272630684292
3351.368,2.752570043313906
3351.372,2.7533994420448273
3351.376,2.754397124576226
3351.38,2.7552625841215357
3351.384,2.7565006720821867
3351.388,2.757582496513823
3351.3920000000003,2.7566929964255884
3351.396,2.755058239506671
3351.4,2.7537119691028558
3351.404,2.754877935434731
3351.408,2.755022178692283
3351.4120000000003,2.7530748947153363
3351.416,2.751548320239582
3351.42,2.7513079148103294
3351.424,2.7508391242232872
3351.428,2.749348610561921
3351.4320000000002,2.749576995719711
3351.436,2.74975729979165
3351.44,2.7516805432256715
3351.444,2.7529186311863225
3351.448,2.750574678251109
3351.452,2.7499496241350525
3351.456,2.75181276621176
3351.46,2.751620441868358
3351.464,2.751908928383461
3351.468,2.752257516255878
3351.472,2.7525099419565926
3351.476,2.7524137797848915
3351.48,2.7539523745321084
3351.484,2.7530989352582615
3351.4880000000003,2.7564766315392615
3351.492,2.756140063938308
3351.496,2.754613489462553
3351.5,2.7545053070193894
3351.504,2.7564766315392615
3351.5080000000003,2.757726739771375
3351.512,2.757919064114777
3351.516,2.7583277533445067
3351.52,2.7591451318039657
3351.524,2.7586763412169226
3351.5280000000002,2.7581835100869547
3351.532,2.7580392668294036
3351.536,2.758147449272567
3351.54,2.758880685831788
3351.544,2.75843593578767
3351.5480000000002,2.759048969632264
3351.552,2.7610443346950615
3351.556,2.7608399900801963
3351.56,2.7603591792216915
3351.564,2.7610683752379868
3351.568,2.7626550510710537
3351.572,2.764734558034089
3351.576,2.766922247440288
3351.58,2.765167287806744
3351.5840000000003,2.763628693059527
3351.588,2.7646383958623884
3351.592,2.7646864769482384
3351.596,2.766116889252292
3351.6,2.765864463551577
3351.6040000000003,2.7651913283496694
3351.608,2.76505910536358
3351.612,2.7638089971314663
3351.616,2.7646744566767762
3351.62,2.766176990609605
3351.6240000000003,2.766056787894979
3351.628,2.766008706809128
3351.632,2.765708200022562
3351.636,2.7640734431036447
3351.64,2.7657322405654874
3351.6440000000002,2.7680040718719248
3351.648,2.7695787274335295
3351.652,2.7681843759438647
3351.656,2.768977713860398
3351.66,2.7678598286143736
3351.664,2.7654798148647726
3351.668,2.7631839430154095
3351.672,2.761993936140609
3351.676,2.75820755062988
3351.6800000000003,2.7539163137177205
3351.684,2.755935719323443
3351.688,2.7566569356112005
3351.692,2.7487115361744014
3351.696,2.7504424552650204
3351.7000000000003,2.7623305037415626
3351.704,2.76249878754204
3351.708,2.7600226116207374
3351.712,2.756524712625112
3351.716,2.750935286394988
3351.7200000000003,2.7486153740027
3351.724,2.7496491173484867
3351.728,2.7513079148103294
3351.732,2.7537720704601694
3351.736,2.756140063938308
3351.7400000000002,2.7601307940639015
3351.744,2.7612246387670005
3351.748,2.7641936458182705
3351.752,2.771501970867551
3351.756,2.777860694471283
3351.76,2.782548600341709
3351.764,2.783654465316271
3351.768,2.7833900193440932
3351.772,2.7818514245968764
3351.7760000000003,2.7784016066871016
3351.78,2.7777645322995816
3351.784,2.7770793768262116
3351.788,2.778089079629073
3351.792,2.778966559445845
3351.7960000000003,2.7776323093134927
3351.8,2.776334119995529
3351.804,2.7778126133854326
3351.808,2.77757220795618
3351.812,2.774795525248312
3351.8160000000003,2.761849692883058
3351.82,2.732772656214951
3351.824,2.695533855223718
3351.828,2.6509867291832045
3351.832,2.654136040306414
3351.8360000000002,2.7631839430154095
3351.84,2.890875286762947
3351.844,2.992037891392456
3351.848,3.1057015783431026
3351.852,3.154588022381626
3351.856,3.114668700854226
3351.86,3.077910710721498
3351.864,3.0549880530422593
3351.868,3.020129265800627
3351.872,2.9928192090375276
3351.876,2.971002416332851
3351.88,2.9282342904688066
3351.884,2.859045607929898
3351.888,2.8035359943154643
3351.8920000000003,2.7602750373214526
3351.896,2.7382058189160605
3351.9,2.729575264005891
3351.904,2.7261735271819663
3351.908,2.7220505740702836
3351.9120000000003,2.7186127764319705
3351.916,2.7156437693807005
3351.92,2.712590620429192
3351.924,2.7111361675822137
3351.928,2.708251302431182
3351.9320000000002,2.7063160387256984
3351.936,2.7051741129367484
3351.94,2.702962382987624
3351.944,2.7013757071545568
3351.948,2.699704889421251
3351.952,2.6964834566692657
3351.956,2.692781213058775
3351.96,2.6912666588544836
3351.964,2.68910300999121
3351.968,2.684655509550036
3351.972,2.679606995535731
3351.976,2.6757605086676888
3351.98,2.671613515013081
3351.984,2.6671299537575184
3351.9880000000003,2.6631512439033878
3351.992,2.6579705069029935
3351.996,2.651623803570724
3352.0,2.6462387219554646
3352.004,2.639086660435199
3352.0080000000003,2.633340970676061
3352.012,2.6290497337639014
3352.016,2.619433516593796
3352.02,2.609216285850559
3352.024,2.600741994469404
3352.0280000000002,2.590308398839839
3352.032,2.5813292560572534
3352.036,2.5721818294741903
3352.04,2.5632387475059923
3352.044,2.5531417194773813
3352.0480000000002,2.5439462118084686
3352.052,2.53678213001674
3352.056,2.5306157307564097
3352.06,2.525326811312852
3352.064,2.521263959558482
3352.068,2.5169366618319344
3352.072,2.5179103038204076
3352.076,2.5186555606510908
3352.08,2.51901616879497
3352.0840000000003,2.520927391957528
3352.088,2.5250142842548238
3352.092,2.530832095642737
3352.096,2.5412416507293765
3352.1,2.5552572872548045
3352.1040000000003,2.569224842694383
3352.108,2.585368067268697
3352.112,2.603506656905809
3352.116,2.621885651972173
3352.12,2.640925761968981
3352.1240000000003,2.6568285811140435
3352.128,2.6716014947416182
3352.132,2.687023503028175
3352.136,2.700221761094144
3352.14,2.712819005586982
3352.1440000000002,2.7218342091839562
3352.148,2.731041737124332
3352.152,2.7377971296863315
3352.156,2.741884021983626
3352.16,2.746932535997932
3352.164,2.750190029564305
3352.168,2.7525940838568315
3352.172,2.752197414898564
3352.176,2.7534475231306783
3352.1800000000003,2.75473369217718
3352.184,2.755394807107624
3352.188,2.756140063938308
3352.192,2.7560679423095316
3352.196,2.756055922038069
3352.2000000000003,2.756464611267799
3352.204,2.7568853207689905
3352.208,2.7561761247526957
3352.212,2.757366131627496
3352.216,2.758724422302773
3352.2200000000003,2.7572098680984816
3352.224,2.755899658509055
3352.228,2.753856212360408
3352.232,2.7524498405992794
3352.236,2.7517526648544473
3352.2400000000002,2.751656502682746
3352.244,2.7537720704601694
3352.248,2.753050854172411
3352.252,2.7520651919124752
3352.256,2.753351360958977
3352.26,2.753519644759454
3352.264,2.7552746043929983
3352.268,2.7557073341656526
3352.272,2.7551183408639837
3352.2760000000003,2.7566809761541258
3352.28,2.7576786586855246
3352.284,2.7594336183190684
3352.288,2.761104436052374
3352.292,2.7599504899919616
3352.2960000000003,2.7615131252821037
3352.3,2.7615732266394173
3352.304,2.761873733425983
3352.308,2.7613688820245526
3352.312,2.761945855054759
3352.3160000000003,2.764578294505075
3352.32,2.7673429569414805
3352.324,2.767475179927569
3352.328,2.7664534568532457
3352.332,2.767330936670018
3352.3360000000002,2.768316598929953
3352.34,2.7706004505078536
3352.344,2.77099711946612
3352.348,2.771946720911668
3352.352,2.771213484352448
3352.356,2.771213484352448
3352.36,2.772559754756262
3352.364,2.771790457382654
3352.368,2.771321666795611
3352.372,2.772307329055547
3352.376,2.773545417016198
3352.38,2.7742666333039563
3352.384,2.7759134104943364
3352.388,2.7743507752041943
3352.3920000000003,2.774975829320251
3352.396,2.7759975523945752
3352.4,2.7759494713087243
3352.404,2.7770913970976743
3352.408,2.7771875592693758
3352.4120000000003,2.778053018814685
3352.416,2.779074741889009
3352.42,2.7805892960933005
3352.424,2.781983647582966
3352.428,2.7822000124692927
3352.4320000000002,2.782103850297592
3352.436,2.7797238365479906
3352.44,2.7811181880376563
3352.444,2.782043748940279
3352.448,2.7797358568194532
3352.452,2.7799402014343184
3352.456,2.7816591002534743
3352.46,2.780505154193062
3352.464,2.780985965051567
3352.468,2.78127445156667
3352.472,2.778269383701012
3352.476,2.776298059181141
3352.48,2.7721029844406826
3352.484,2.769446504447441
3352.4880000000003,2.768797409788459
3352.492,2.7696869098766936
3352.496,2.7654798148647726
3352.5,2.763111821386634
3352.504,2.771826518197042
3352.5080000000003,2.780096464963332
3352.512,2.7755888631648453
3352.516,2.7724034912272484
3352.52,2.767739625899747
3352.524,2.762029996954997
3352.5280000000002,2.7631719227439473
3352.532,2.76523940943552
3352.536,2.7697229706910815
3352.54,2.7719226803687427
3352.544,2.775312396921205
3352.5480000000002,2.7766827078679452
3352.552,2.7772356403552263
3352.556,2.784051134274538
3352.56,2.7888231820452027
3352.564,2.794508770447028
3352.568,2.7956386759645158
3352.572,2.7962276692661847
3352.576,2.7978263653707143
3352.58,2.7974056558695226
3352.5840000000003,2.7961315070944837
3352.588,2.797658081570238
3352.592,2.7961435273659463
3352.596,2.7953501894494126
3352.6,2.796107466551558
3352.6040000000003,2.797429696412448
3352.608,2.797610000484387
3352.612,2.798920210073814
3352.616,2.7988841492594263
3352.62,2.7954102908067253
3352.6240000000003,2.778089079629073
3352.628,2.74536990070779
3352.632,2.706953113113218
3352.636,2.667815109230889
3352.64,2.6988995312332547
3352.6440000000002,2.8103635085062395
3352.648,2.9132329916834423
3352.652,3.01064527161661
3352.656,3.107877247477839
3352.66,3.1111467613156747
3352.664,3.062272337548614
3352.668,3.0325462062215256
3352.672,3.008145055152383
3352.676,2.9792843833706044
3352.6800000000003,2.9682137133535202
3352.684,2.9607491247752256
3352.688,2.932068757065386
3352.692,2.8713784064505585
3352.696,2.824018536887789
3352.7000000000003,2.786046499337335
3352.704,2.764109503918032
3352.708,2.7582796722586562
3352.712,2.7539764150750337
3352.716,2.7505386174367215
3352.7200000000003,2.7473171846847357
3352.724,2.7461151575384726
3352.728,2.7455381845082663
3352.732,2.7440116100325116
3352.736,2.7432182721159784
3352.7400000000002,2.7402492650647083
3352.744,2.73810965674436
3352.748,2.7382659202733737
3352.752,2.7369917714983347
3352.756,2.7342030685190046
3352.76,2.733097203544442
3352.764,2.7295872842773536
3352.768,2.7253801892654326
3352.772,2.7229400741585184
3352.7760000000003,2.720091269821874
3352.78,2.7159442761672663
3352.784,2.7125545596148046
3352.788,2.7112804108397652
3352.792,2.707277660442709
3352.7960000000003,2.703166727602489
3352.8,2.6967118418270557
3352.804,2.6937548550472483
3352.808,2.687564415243993
3352.812,2.6810494281112467
3352.8160000000003,2.6737771638763546
3352.82,2.666733284799252
3352.824,2.661143858569128
3352.828,2.655277966095364
3352.832,2.647512870730504
3352.8360000000002,2.6387020117483946
3352.84,2.632427430044901
3352.844,2.6244820306081014
3352.848,2.616993401486882
3352.852,2.610754880597776
3352.856,2.604780805680848
3352.86,2.600573710668927
3352.864,2.595116507424892
3352.868,2.590873351598583
3352.872,2.588517378391907
3352.876,2.5865580741434977
3352.88,2.585007459124818
3352.884,2.5843703847372987
3352.888,2.586990803916153
3352.8920000000003,2.5915945678863404
3352.896,2.596619041357721
3352.9,2.6034705960914213
3352.904,2.6126060024030213
3352.908,2.6202749355961803
3352.9120000000003,2.633040463889495
3352.916,2.647452769373191
3352.92,2.6589561691629293
3352.924,2.6751234342801693
3352.928,2.691086354782544
3352.9320000000002,2.705114011579435
3352.936,2.7176271141720347
3352.94,2.7306570884375283
3352.944,2.742929785600875
3352.948,2.752209435170027
3352.952,2.760467361664855
3352.956,2.768677207073832
3352.96,2.77350935620181
3352.964,2.775384518549981
3352.968,2.778341505329788
3352.972,2.7847002289335205
3352.976,2.786034479065872
3352.98,2.7882101482006085
3352.984,2.78995308756269
3352.9880000000003,2.7907344052077616
3352.992,2.790722384936299
3352.996,2.78995308756269
3353.0,2.7894842969756475
3353.004,2.790385817335345
3353.0080000000003,2.7888231820452027
3353.012,2.787813479242342
3353.016,2.787549033270164
3353.02,2.7879817630428185
3353.024,2.7868518575253316
3353.0280000000002,2.7873567089267617
3353.032,2.7870321615972706
3353.036,2.7883543914581606
3353.04,2.787645195441865
3353.044,2.786190742594887
3353.0480000000002,2.785120938434712
3353.052,2.7836424450448085
3353.056,2.7837746680308975
3353.06,2.7850848776203248
3353.064,2.7851690195205627
3353.068,2.7858661952653954
3353.072,2.7872244859406727
3353.076,2.7883904522725484
3353.08,2.7863229655809754
3353.0840000000003,2.788751060416427
3353.088,2.7890996482888433
3353.092,2.7889073239454416
3353.096,2.788955405031292
3353.1,2.7891236888317685
3353.1040000000003,2.790938749822626
3353.108,2.7922729999549785
3353.112,2.7904699592355837
3353.116,2.7881019657574453
3353.12,2.790938749822626
3353.1240000000003,2.794568871804341
3353.128,2.794749175876281
3353.132,2.7953862502638005
3353.136,2.795242007006249
3353.14,2.7953501894494126
3353.1440000000002,2.7966844395817643
3353.148,2.795806959764992
3353.152,2.7955064529784264
3353.156,2.796864743653704
3353.16,2.797333534240747
3353.164,2.7974056558695226
3353.168,2.7981749532431306
3353.172,2.800098196677152
3353.176,2.8007713318790595
3353.1800000000003,2.799749608804736
3353.184,2.7985836424728605
3353.188,2.79904041278844
3353.192,2.8014084062665785
3353.196,2.7999539534196
3353.2000000000003,2.799809710162049
3353.204,2.799280818217693
3353.208,2.7965041355098252
3353.212,2.797874446456565
3353.216,2.800218399391778
3353.2200000000003,2.7996173858186464
3353.224,2.79762202075585
3353.228,2.7953862502638005
3353.232,2.7940039190455974
3353.236,2.7930062365141985
3353.2400000000002,2.797069088268569
3353.244,2.807791170413236
3353.248,2.8127194817129153
3353.252,2.8092456232602143
3353.256,2.799749608804736
3353.26,2.787789438699417
3353.264,2.784868512733997
3353.268,2.785782053365157
3353.272,2.7866715534533917
3353.2760000000003,2.7895924794188116
3353.28,2.7920566350686506
3353.284,2.7931144189573627
3353.288,2.793523108187092
3353.292,2.7974056558695226
3353.2960000000003,2.802478210426753
3353.3,2.8066853054386742
3353.304,2.8101110828055242
3353.308,2.813056049313869
3353.312,2.8121304884112464
3353.3160000000003,2.8123107924831854
3353.32,2.811938164067844
3353.324,2.8102673463345385
3353.328,2.8082719812717416
3353.332,2.8097144138472574
3353.3360000000002,2.811745839724442
3353.34,2.8110967450654596
3353.344,2.8096302719470185
3353.348,2.808079656928339
3353.352,2.806721366253062
3353.356,2.8069617716823148
3353.36,2.8051467106914574
3353.364,2.79629979089496
3353.368,2.7739300657030026
3353.372,2.744264035733227
3353.376,2.705871288681581
3353.38,2.6784410292038556
3353.384,2.7224472430285505
3353.388,2.8210254892935938
3353.3920000000003,2.9004554431186653
3353.396,2.9869773571066887
3353.4,3.061298695560141
3353.404,3.0420181801340798
3353.408,2.997543175722342
3353.4120000000003,2.9680814903674317
3353.416,2.940747393061406
3353.42,2.920974046505377
3353.424,2.9166707893217554
3353.428,2.9190387827998934
3353.4320000000002,2.90522749088933
3353.436,2.857543073997069
3353.44,2.822107313725231
3353.444,2.78789762114258
3353.448,2.767739625899747
3353.452,2.763328186272961
3353.456,2.7602870575929153
3353.46,2.757967145200628
3353.464,2.756993503212154
3353.468,2.7535316650309167
3353.472,2.750550637708184
3353.476,2.7490601240468173
3353.48,2.7471368806127967
3353.484,2.7469205157264693
3353.4880000000003,2.7439515086751984
3353.492,2.7414152313965836
3353.496,2.740381488050797
3353.5,2.7392756230762347
3353.504,2.7348762037209116
3353.5080000000003,2.732940940015428
3353.512,2.731522547982838
3353.516,2.7298276897066063
3353.52,2.729094453147386
3353.524,2.7268466623838736
3353.5280000000002,2.723805533703828
3353.532,2.7190094453902374
3353.536,2.71468214766369
3353.54,2.7107755594383347
3353.544,2.7065804846978763
3353.5480000000002,2.700618430052411
3353.552,2.6966276999268177
3353.556,2.690112712794071
3353.56,2.6840304554339793
3353.564,2.679114164405763
3353.568,2.6716014947416182
3353.572,2.663668115576281
3353.576,2.6570329257289083
3353.58,2.649928945294493
3353.5840000000003,2.643053350017867
3353.588,2.6339780450635804
3353.592,2.625323449610485
3353.596,2.6186281584057998
3353.6,2.614024394435612
3353.6040000000003,2.6112116509133556
3353.608,2.6069564748155845
3353.612,2.602629177089037
3353.616,2.599864514652632
3353.62,2.597400359002792
3353.6240000000003,2.5968594467869734
3353.628,2.5973883387313292
3353.632,2.6007540147408665
3353.636,2.601859879715428
3353.64,2.604312015093805
3353.6440000000002,2.6100336643100177
3353.648,2.619649881480123
3353.652,2.6297709500516593
3353.656,2.639303025321526
3353.66,2.6513713778700088
3353.664,2.6670698524002057
3353.668,2.681205691640261
3353.672,2.6928413144160883
3353.676,2.705739065695492
3353.6800000000003,2.715727911280939
3353.684,2.7268106015694857
3353.688,2.7374846026283026
3353.692,2.744612623605643
3353.696,2.7528465095575467
3353.7000000000003,2.7584599763305953
3353.704,2.7627271726998295
3353.708,2.7645181931477616
3353.712,2.767703565085359
3353.716,2.7721029844406826
3353.7200000000003,2.775673005065084
3353.724,2.7774520052415532
3353.728,2.7770433160118237
3353.732,2.7755167415360695
3353.736,2.7758773496799485
3353.7400000000002,2.7762379578238274
3353.744,2.777031295740361
3353.748,2.775865329408486
3353.752,2.776358160538454
3353.756,2.7748315860627
3353.76,2.7734612751159595
3353.764,2.7738699643456894
3353.768,2.771826518197042
3353.772,2.7711654032665973
3353.7760000000003,2.769386403090128
3353.78,2.7690979165750247
3353.784,2.769386403090128
3353.788,2.769338322004277
3353.792,2.7688454908743094
3353.7960000000003,2.767919929971687
3353.8,2.7681483151294763
3353.804,2.769927315305946
3353.808,2.769386403090128
3353.812,2.767883869157299
3353.8160000000003,2.7677155853568216
3353.82,2.7695787274335295
3353.824,2.7703480248071384
3353.828,2.77209096416922
3353.832,2.7726679371994263
3353.8360000000002,2.769915295034483
3353.84,2.768617105716519
3353.844,2.7700234774776473
3353.848,2.7710812613663585
3353.852,2.7716942952109527
3353.856,2.7725116736704116
3353.86,2.772475612856024
3353.864,2.771562072224864
3353.868,2.7711654032665973
3353.872,2.7725236939418743
3353.876,2.772884302085753
3353.88,2.773329052129871
3353.884,2.7736656197308247
3353.888,2.7728482412713653
3353.8920000000003,2.773954106245928
3353.896,2.7756129037077706
3353.9,2.7772356403552263
3353.904,2.7757932077797105
3353.908,2.775096032034878
3353.9120000000003,2.7748075455197747
3353.916,2.774867646877088
3353.92,2.7752162347495037
3353.924,2.774795525248312
3353.928,2.774867646877088
3353.9320000000002,2.77465128199076
3353.936,2.7765745254247816
3353.94,2.7760937145662763
3353.944,2.772655916927963
3353.948,2.7704201464359137
3353.952,2.771790457382654
3353.956,2.772235207426771
3353.96,2.7710091397375827
3353.964,2.76711457178369
3353.968,2.765936585180352
3353.972,2.760888071166047
3353.976,2.7639772809319436
3353.98,2.7772356403552263
3353.984,2.781154248852044
3353.9880000000003,2.7782934242439374
3353.992,2.771417828967312
3353.996,2.761080395509449
3354.0,2.7575464356994352
3354.004,2.7604313008504673
3354.0080000000003,2.761705449625506
3354.012,2.763628693059527
3354.016,2.767679524542434
3354.02,2.7665375987534837
3354.024,2.768232457029715
3354.0280000000002,2.7726919777423515
3354.032,2.7795555527475138
3354.036,2.784784370833759
3354.04,2.7861186209661106
3354.044,2.7871523643118974
3354.0480000000002,2.787753377885029
3354.052,2.787452871098463
3354.056,2.7876572157133275
3354.06,2.7859743777085595
3354.064,2.784664168119132
3354.068,2.7837746680308975
3354.072,2.7845079045901184
3354.076,2.784051134274538
3354.08,2.7836424450448085
3354.0840000000003,2.783462140972869
3354.088,2.7848084113766842
3354.092,2.786731654810705
3354.096,2.7841112356318516
3354.1,2.7728722818142906
3354.1040000000003,2.74409575193275
3354.108,2.7090807011621036
3354.112,2.6667092442563267
3354.116,2.6584032366756483
3354.12,2.745694448037281
3354.1240000000003,2.8683733385849006
3354.128,2.966518855077289
3354.132,3.07696110927595
3354.136,3.1415340075732083
3354.14,3.109728369283084
3354.1440000000002,3.0667198379897878
3354.148,3.044001524925414
3354.152,3.0079407105375178
3354.156,2.977950133238252
3354.16,2.956349705419903
3354.164,2.9207697018905123
3354.168,2.858949445758197
3354.172,2.807346420369119
3354.176,2.7638690984887795
3354.1800000000003,2.742100386869953
3354.184,2.7347920618206736
3354.188,2.7317869939550157
3354.192,2.7275077773143184
3354.196,2.725272006822269
3354.2000000000003,2.721269256425213
3354.204,2.7185166142602695
3354.208,2.7164851883830847
3354.212,2.7133599178028005
3354.216,2.711580917626331
3354.2200000000003,2.7102346472225163
3354.224,2.708684032203837
3354.228,2.7047774439784815
3354.232,2.7022051058854784
3354.236,2.7009309571104394
3354.2400000000002,2.6968560850846073
3354.244,2.6938389969474867
3354.248,2.6904132195806367
3354.252,2.6883337126176015
3354.256,2.6829125701879546
3354.26,2.679667096893044
3354.264,2.6783448670321546
3354.268,2.6722145285862124
3354.272,2.6667092442563267
3354.2760000000003,2.661215980197904
3354.28,2.656359790527001
3354.284,2.649760661494016
3354.288,2.6437505257627
3354.292,2.6369831129292383
3354.2960000000003,2.630696510954282
3354.3,2.62233040201629
3354.304,2.613579644391494
3354.308,2.6028455419753644
3354.312,2.5922797233597104
3354.3160000000003,2.5834688643776014
3354.32,2.573768505307258
3354.324,2.5650538084968497
3354.328,2.5569281049881107
3354.332,2.5492832123378766
3354.3360000000002,2.5417224615878813
3354.34,2.5340895892091106
3354.344,2.527827027777079
3354.348,2.5217688109599123
3354.352,2.5183790944074507
3354.356,2.517441513233365
3354.36,2.516395749616116
3354.364,2.5209874933148413
3354.368,2.528367939992898
3354.372,2.5318898795314486
3354.376,2.539138103223416
3354.38,2.5498481650966203
3354.384,2.5631185447913656
3354.388,2.5769298367019298
3354.3920000000003,2.5934456896915856
3354.396,2.611415995528221
3354.4,2.6278957877034888
3354.404,2.6446520461223972
3354.408,2.6625382100587935
3354.4120000000003,2.6794867928211046
3354.416,2.693250003645818
3354.42,2.706063613024983
3354.424,2.718047823673227
3354.428,2.725211905464956
3354.4320000000002,2.730981635767019
3354.436,2.735801764623534
3354.44,2.7431581707586647
3354.444,2.745778589937519
3354.448,2.74719698197011
3354.452,2.748927901060729
3354.456,2.750045786306753
3354.46,2.7508992255806
3354.464,2.7535436853023794
3354.468,2.7528465095575467
3354.472,2.7524498405992794
3354.476,2.7540605569752725
3354.48,2.7541807596898984
3354.484,2.7528945906433973
3354.4880000000003,2.75341146231629
3354.492,2.7526301446712194
3354.496,2.7504304349935578
3354.5,2.7497452795201873
3354.504,2.7496250768055615
3354.5080000000003,2.748988002418042
3354.512,2.7492284078472946
3354.516,2.7490360835038925
3354.52,2.7493726511048457
3354.524,2.7511516512813157
3354.5280000000002,2.7522935770702657
3354.532,2.7509112458520626
3354.536,2.7515964013254326
3354.54,2.7517526648544473
3354.544,2.750406394450632
3354.5480000000002,2.7507910431374367
3354.552,2.7508271039518246
3354.556,2.7513920567105683
3354.56,2.753567725845304
3354.564,2.754757732720105
3354.568,2.754517327290852
3354.572,2.7538802529033326
3354.576,2.7537360096457815
3354.58,2.7526301446712194
3354.5840000000003,2.752690246028532
3354.588,2.753784090731632
3354.592,2.7548298543488805
3354.596,2.756344408553172
3354.6,2.7566929964255884
3354.6040000000003,2.7564045099104852
3354.608,2.7573901721704215
3354.612,2.7576305775996737
3354.616,2.7595418007622325
3354.62,2.7596860440197837
3354.6240000000003,2.7599144291775737
3354.628,2.7595177602193073
3354.632,2.760767868451421
3354.636,2.7639291998460926
3354.64,2.7645181931477616
3354.6440000000002,2.764614355319463
3354.648,2.764578294505075
3354.652,2.7638089971314663
3354.656,2.7653115310642953
3354.66,2.766417396038858
3354.664,2.764734558034089
3354.668,2.7663933554959326
3354.672,2.7672227542268537
3354.676,2.767403058298793
3354.6800000000003,2.7676675042709715
3354.684,2.76820841648679
3354.688,2.7659005243659642
3354.692,2.7656000175793984
3354.696,2.766525578482021
3354.7000000000003,2.767619423185121
3354.704,2.7681603354009394
3354.708,2.7695787274335295
3354.712,2.771069241094896
3354.716,2.7700114572061847
3354.7200000000003,2.770143680192273
3354.724,2.7727640993711273
3354.728,2.7695426666191416
3354.732,2.7690979165750247
3354.736,2.7705523694220027
3354.7400000000002,2.770708632951017
3354.744,2.7690979165750247
3354.748,2.767883869157299
3354.752,2.766790024454199
3354.756,2.7653956729645337
3354.76,2.763532530887826
3354.764,2.7577507803143004
3354.768,2.752930651457785
3354.772,2.7552986449359236
3354.7760000000003,2.7567170369685137
3354.78,2.7497092187057994
3354.784,2.74811052260127
3354.788,2.7602870575929153
3354.792,2.765323551335758
3354.7960000000003,2.761825652340132
3354.8,2.759169172346891
3354.804,2.750995387752301
3354.808,2.747785975271779
3354.812,2.7487475969887893
3354.8160000000003,2.7511155904669278
3354.82,2.754337023218913
3354.824,2.757137746469706
3354.828,2.761236659038463
3354.832,2.7629916186720074
3354.8360000000002,2.765792341922801
3354.84,2.771201464080985
3354.844,2.7778486741998205
3354.848,2.7815869786246985
3354.852,2.783077492286065
3354.856,2.7820557692117416
3354.86,2.7830053706572895
3354.864,2.782079809754667
3354.868,2.781418694824222
3354.872,2.7797358568194532
3354.876,2.779014640531696
3354.88,2.779519491933126
3354.884,2.7807455596223143
3354.888,2.779687775733603
3354.8920000000003,2.7770793768262116
3354.896,2.779255045960948
3354.9,2.7794593905758127
3354.904,2.767030429883452
3354.908,2.736667224168844
3354.9120000000003,2.6993683218202973
3354.916,2.6554943309816914
3354.92,2.6458781138115857
3354.924,2.741679677368761
3354.928,2.8741911499728143
3354.9320000000002,2.980402268616629
3354.936,3.0983571924794346
3354.94,3.1569800564026895
3354.944,3.121916924546193
3354.948,3.07952142709749
3354.952,3.059387472397582
3354.956,3.0246609081420393
3354.96,2.995487709302232
3354.964,2.9748609234723555
3354.968,2.9350978654739692
3354.972,2.864502811173933
3354.976,2.805964089150916
3354.98,2.760046652163663
3354.984,2.7390712784613704
3354.9880000000003,2.731474466896987
3354.992,2.726906763741187
3354.996,2.7219303713556577
3355.0,2.7182882291024795
3355.004,2.7143455800627363
3355.0080000000003,2.7120256676704484
3355.012,2.71011444450789
3355.016,2.707530086143424
3355.02,2.704693302078243
3355.024,2.7028542005444605
3355.0280000000002,2.7011833828111547
3355.032,2.6979258892447815
3355.036,2.696832044541682
3355.04,2.6946323348640204
3355.044,2.6912065574971704
3355.0480000000002,2.68750431388668
3355.052,2.6861460232114025
3355.056,2.6846434892785735
3355.06,2.67905406304845
3355.064,2.674318076092173
3355.068,2.6716615960989314
3355.072,2.667250156472145
3355.076,2.660951534225726
3355.08,2.657141108172072
3355.0840000000003,2.6510227899975924
3355.088,2.644327498792906
3355.092,2.6371393764582525
3355.096,2.631405706970577
3355.1,2.6228953547750335
3355.1040000000003,2.6130627727186013
3355.108,2.604492319165745
3355.112,2.5950203452531904
3355.116,2.584827155052879
3355.12,2.575234978425699
3355.1240000000003,2.5665803829726035
3355.128,2.5589114497794445
3355.132,2.550797766542168
3355.136,2.542648022490504
3355.14,2.5344141365386017
3355.1440000000002,2.5281155142921823
3355.148,2.5230068989205634
3355.152,2.5178502024630944
3355.156,2.5148811954118244
3355.16,2.5132223979499813
3355.164,2.512585323562462
3355.168,2.5134147222933834
3355.172,2.514532607539408
3355.176,2.5200619324122187
3355.1800000000003,2.528956933294567
3355.184,2.5396910357106965
3355.188,2.5506535232846166
3355.192,2.5635512745640208
3355.196,2.579982985653438
3355.2000000000003,2.596787325158197
3355.204,2.6154187459252767
3355.208,2.634254511307221
3355.212,2.652128654972154
3355.216,2.667322278100921
3355.2200000000003,2.682960651273805
3355.224,2.6957021390241946
3355.228,2.7072536198997836
3355.232,2.717518931728871
3355.236,2.725464331165671
3355.2400000000002,2.7331212440873673
3355.244,2.7386625892316405
3355.248,2.7438313059605726
3355.252,2.746139198081398
3355.256,2.7479422388007926
3355.26,2.750634779608422
3355.264,2.752257516255878
3355.268,2.7520050905551625
3355.272,2.7534355028592157
3355.2760000000003,2.7545774286481652
3355.28,2.7539764150750337
3355.284,2.7540365164323473
3355.288,2.7537961110030946
3355.292,2.752870550100472
3355.2960000000003,2.7522935770702657
3355.3,2.7510554891096146
3355.304,2.749048103775355
3355.308,2.749132245675593
3355.312,2.7509713472093758
3355.3160000000003,2.7507309417801236
3355.32,2.7504184147220947
3355.324,2.750995387752301
3355.328,2.750706901237198
3355.332,2.75107952965254
3355.3360000000002,2.7492284078472946
3355.34,2.748927901060729
3355.344,2.7484230496592983
3355.348,2.7490601240468173
3355.352,2.75016598902138
3355.356,2.7496731578914115
3355.36,2.749841441691889
3355.364,2.7505386174367215
3355.368,2.7492404281187572
3355.372,2.749096184861205
3355.376,2.75016598902138
3355.38,2.7513079148103294
3355.384,2.7521493338127136
3355.388,2.7526181243997567
3355.3920000000003,2.7547216719057173
3355.396,2.755527030093713
3355.4,2.7557073341656526
3355.404,2.757907043843314
3355.408,2.7601788751497516
3355.4120000000003,2.759734125105634
3355.416,2.759613922391008
3355.42,2.7604192805790047
3355.424,2.761116456323837
3355.428,2.759998571077812
3355.4320000000002,2.7612246387670005
3355.436,2.7637128349597657
3355.44,2.764770618848477
3355.444,2.7644580917904484
3355.448,2.7633161660014984
3355.452,2.7628954565003063
3355.456,2.7663212338671563
3355.46,2.7696508490623053
3355.464,2.76779972725706
3355.468,2.766405375767395
3355.472,2.7662250716954553
3355.476,2.766032747352053
3355.48,2.7671265920551527
3355.484,2.7677877069855974
3355.4880000000003,2.7699874166632594
3355.492,2.7710812613663585
3355.496,2.770660551865167
3355.5,2.769819132862782
3355.504,2.7701917612781237
3355.5080000000003,2.769266200375501
3355.512,2.769386403090128
3355.516,2.769302261189889
3355.52,2.7688815516886973
3355.524,2.7696388287908427
3355.5280000000002,2.768292558387028
3355.532,2.769206099018188
3355.536,2.76912195711795
3355.54,2.7712856059812236
3355.544,2.772343389869935
3355.5480000000002,2.771213484352448
3355.552,2.770973078923195
3355.556,2.771429849238775
3355.56,2.7706004505078536
3355.564,2.7684368016445795
3355.568,2.7670544704263773
3355.572,2.7653956729645337
3355.576,2.762174240212549
3355.58,2.75820755062988
3355.5840000000003,2.755539050365176
3355.588,2.7571617870126315
3355.592,2.7551183408639837
3355.596,2.7513920567105683
3355.6,2.758652300673998
3355.6040000000003,2.7670905312407648
3355.608,2.764506172876299
3355.612,2.762029996954997
3355.616,2.7576786586855246
3355.62,2.7537720704601694
3355.6240000000003,2.7535316650309167
3355.628,2.755827536880279
3355.632,2.7584239155162074
3355.636,2.7600105913492747
3355.64,2.7648908215631036
3355.6440000000002,2.766441436581783
3355.648,2.7671025515122274
3355.652,2.773268950772558
3355.656,2.7807816204367026
3355.66,2.7843035599752533
3355.664,2.786948019697032
3355.668,2.7886909590591142
3355.672,2.786407107481214
3355.676,2.7884986347157117
3355.6800000000003,2.788666918516189
3355.684,2.7867677156250927
3355.688,2.788017823857207
3355.692,2.7869720602399575
3355.696,2.787308627840911
3355.7000000000003,2.7881861076576833
3355.704,2.7895564186044237
3355.708,2.7884986347157117
3355.712,2.788522675258637
3355.716,2.7843636613325664
3355.7200000000003,2.7655519364935484
3355.724,2.731955277755492
3355.728,2.691675348084213
3355.732,2.652128654972154
3355.736,2.6855930907241214
3355.7400000000002,2.8068175284247627
3355.744,2.9159014919481465
3355.748,3.017280461463983
3355.752,3.1177819511630482
3355.756,3.122878546263204
3355.76,3.0704100613288157
3355.764,3.0430639437513287
3355.768,3.016775610062553
3355.772,2.9879870599095497
3355.7760000000003,2.9735627341543918
3355.78,2.9611578140049555
3355.784,2.9214668776353454
3355.788,2.8576752969831576
3355.792,2.809870677376271
3355.7960000000003,2.769386403090128
3355.8,2.7522695365273404
3355.804,2.7459949548238467
3355.808,2.740706035380288
3355.812,2.736522980911292
3355.8160000000003,2.735609440280132
3355.82,2.7342872104192426
3355.824,2.7334337711453958
3355.828,2.729899811335382
3355.832,2.7263538312539057
3355.8360000000002,2.726606256954621
3355.84,2.7226996687292657
3355.844,2.7212331956108247
3355.848,2.7201393509077247
3355.852,2.717158323584992
3355.856,2.7160644788818926
3355.86,2.713444059703039
3355.864,2.711196268939527
3355.868,2.709525451206221
3355.872,2.706820890127129
3355.876,2.7031787478739515
3355.88,2.6995245853493115
3355.884,2.6954136525090915
3355.888,2.6897400843787294
3355.8920000000003,2.687852901759096
3355.896,2.6811455902829477
3355.9,2.677323143957831
3355.904,2.670315325695116
3355.908,2.6625021492444056
3355.9120000000003,2.6560232229260468
3355.916,2.649724600679628
3355.92,2.6416469782567393
3355.924,2.6337256193628646
3355.928,2.6271625511442678
3355.9320000000002,2.619397455779408
3355.936,2.611403975256758
3355.94,2.6048889881240114
3355.944,2.5958858047985
3355.948,2.5883971756772803
3355.952,2.5819422899018476
3355.956,2.5756076068410407
3355.96,2.569429187309247
3355.964,2.5656428017985187
3355.968,2.5647773422532087
3355.972,2.5630223826196645
3355.976,2.562385308232145
3355.98,2.5624093487750703
3355.984,2.562421369046533
3355.9880000000003,2.5639359232508245
3355.992,2.570715356355749
3355.996,2.5791656071939797
3356.0,2.5885414189348324
3356.004,2.600249163339436
3356.0080000000003,2.609805279152228
3356.012,2.6244219292507878
3356.016,2.6402045456812235
3356.02,2.654592810621994
3356.024,2.668728649862049
3356.0280000000002,2.685821475881912
3356.032,2.7003660043516957
3356.036,2.7117011203409573
3356.04,2.72354108773165
3356.044,2.7327846764864137
3356.0480000000002,2.7435909005313195
3356.052,2.7510074080237636
3356.056,2.7580873479152537
3356.06,2.764506172876299
3356.064,2.767980031329
3356.068,2.77076873430833
3356.072,2.771501970867551
3356.076,2.774098349503479
3356.08,2.7766466470535573
3356.0840000000003,2.779014640531696
3356.088,2.7786179715734285
3356.092,2.7757932077797105
3356.096,2.777247660626689
3356.1,2.7766466470535573
3356.1040000000003,2.775781187508248
3356.108,2.7754927009931447
3356.112,2.774470977918821
3356.116,2.774398856290045
3356.12,2.7748075455197747
3356.1240000000003,2.7740142076032406
3356.128,2.7738459238027637
3356.132,2.7743507752041943
3356.136,2.771982781726056
3356.14,2.773797842716913
3356.1440000000002,2.7761778564665143
3356.148,2.7753484577355927
3356.152,2.7732328899581695
3356.156,2.773413194030109
3356.16,2.7748556266056252
3356.164,2.773473295387422
3356.168,2.773954106245928
3356.172,2.7754927009931447
3356.176,2.7764302821672295
3356.1800000000003,2.7770192754688985
3356.184,2.775660984793621
3356.188,2.7741223900464043
3356.192,2.7753965388214437
3356.196,2.7792430256894853
3356.2000000000003,2.7801445460491827
3356.204,2.782957289571439
3356.208,2.7825005192558585
3356.212,2.7797598973623785
3356.216,2.7814066745527595
3356.2200000000003,2.7818153637824885
3356.224,2.782921228757051
3356.228,2.785890235808321
3356.232,2.787693276527716
3356.236,2.786875898068257
3356.2400000000002,2.7842915397037906
3356.244,2.785048816805937
3356.248,2.7846160870332817
3356.252,2.7867917561680184
3356.256,2.7885707563444875
3356.26,2.7875971143560143
3356.264,2.7880538846715948
3356.268,2.7889794455742174
3356.272,2.7900372294629285
3356.2760000000003,2.790542080864359
3356.28,2.7891837901890817
3356.284,2.788955405031292
3356.288,2.7903377362494943
3356.292,2.789171769917619
3356.2960000000003,2.7907344052077616
3356.3,2.789291972632246
3356.304,2.788017823857207
3356.308,2.790433898421196
3356.312,2.7904819795070464
3356.3160000000003,2.787549033270164
3356.32,2.78401507346015
3356.324,2.7808777826084037
3356.328,2.780829701522553
3356.332,2.7822000124692927
3356.3360000000002,2.7916239052959964
3356.34,2.7993890006608564
3356.344,2.7994250614752447
3356.348,2.7901454119060927
3356.352,2.7800483838774817
3356.356,2.772571775027725
3356.36,2.7730285453433052
3356.364,2.7740743089605537
3356.368,2.776334119995529
3356.372,2.7825005192558585
3356.376,2.78351022205872
3356.38,2.7824283976270827
3356.384,2.784832451919609
3356.388,2.789989148377078
3356.3920000000003,2.798235054600444
3356.396,2.8019733590253226
3356.4,2.8033797307864505
3356.404,2.8050625687912185
3356.408,2.806396818923571
3356.4120000000003,2.8057958053504395
3356.416,2.8059400486079906
3356.42,2.804966406619518
3356.424,2.8049423660765926
3356.428,2.804834183633429
3356.4320000000002,2.8047981228190406
3356.436,2.806613183809898
3356.44,2.807791170413236
3356.444,2.8057116634502006
3356.448,2.805218832320233
3356.452,2.804305291689073
3356.456,2.796804642296391
3356.46,2.7750840117634152
3356.464,2.7454179817936404
3356.468,2.7106553567237084
3356.472,2.6749551504796925
3356.476,2.6989355920476426
3356.48,2.7925614864700816
3356.484,2.877436623267725
3356.4880000000003,2.9574195095800766
3356.492,3.0465017413896414
3356.496,3.0464897211181787
3356.5,3.001930574806202
3356.504,2.9666871388777665
3356.5080000000003,2.937946669810613
3356.512,2.9146994648018834
3356.516,2.9081964979405996
3356.52,2.9099394373026812
3356.524,2.9049750651886144
3356.5280000000002,2.8624233042108975
3356.532,2.8248719761616363
3356.536,2.792585527013007
3356.54,2.7686050854450563
3356.544,2.762354544284488
3356.5480000000002,2.7603591792216915
3356.552,2.7568372396831404
3356.556,2.753603786659692
3356.56,2.7543610637618383
3356.564,2.7508751850376747
3356.568,2.747810015814704
3356.572,2.7461752588957857
3356.576,2.7469205157264693
3356.58,2.745249697993163
3356.5840000000003,2.7418960422550884
3356.588,2.7413431097678074
3356.592,2.739239562261847
3356.596,2.737989454029733
3356.6,2.7363546971108157
3356.6040000000003,2.731666791240389
3356.608,2.729094453147386
3356.612,2.727014946184351
3356.616,2.7244065472769594
3356.62,2.7193700535341163
3356.6240000000003,2.718468533174419
3356.628,2.7168217559840384
3356.632,2.7111001067678258
3356.636,2.7060515927535205
3356.64,2.703226828959802
3356.6440000000002,2.6975652811009025
3356.648,2.6911464561398573
3356.652,2.6846795500929614
3356.656,2.6806888199673677
3356.66,2.676469704683984
3356.664,2.670976440625561
3356.668,2.66402872372016
3356.672,2.6556145336963177
3356.676,2.649051465477721
3356.6800000000003,2.64219991074402
3356.684,2.6358532074117504
3356.688,2.630924896112072
3356.692,2.6265975983855245
3356.696,2.6216933276287704
3356.7000000000003,2.6198902869093756
3356.704,2.615851475697932
3356.708,2.6119448874725766
3356.712,2.609372549379573
3356.716,2.6076776911033424
3356.7200000000003,2.607785873546506
3356.724,2.6088316371637545
3356.728,2.6139763133497613
3356.732,2.618363712433622
3356.736,2.621657266814383
3356.7400000000002,2.6318143962003067
3356.744,2.6407694984399672
3356.748,2.6499049047515677
3356.752,2.6602423382094305
3356.756,2.677190920971742
3356.76,2.6885981585897794
3356.764,2.701267524711393
3356.768,2.7138888097471563
3356.772,2.7249474594927783
3356.7760000000003,2.7349122645352995
3356.78,2.7424129139279816
3356.784,2.7503342728218563
3356.788,2.7573060302701826
3356.792,2.762763233514218
3356.7960000000003,2.7684368016445795
3356.8,2.7733771332157215
3356.804,2.77647836325308
3356.808,2.7796757554621405
3356.812,2.7812864718381327
3356.8160000000003,2.7817672826966384
3356.82,2.781983647582966
3356.824,2.7812624312952074
3356.828,2.7802046474064963
3356.832,2.7797598973623785
3356.8360000000002,2.776418261895767
3356.84,2.779158883789247
3356.844,2.784832451919609
3356.848,2.7816831407964
3356.852,2.7798560595340795
3356.856,2.7785218094017274
3356.86,2.7798320189911543
3356.864,2.7784016066871016
3356.868,2.778413626958564
3356.872,2.777476045784479
3356.876,2.7775481674132547
3356.88,2.7763461402669916
3356.884,2.775889369951411
3356.888,2.7780770593576105
3356.8920000000003,2.777067356554749
3356.896,2.7741704711322552
3356.9,2.774386836018582
3356.904,2.772740058828202
3356.908,2.7727640993711273
3356.9120000000003,2.773797842716913
3356.916,2.7737858224454506
3356.92,2.774158450860792
3356.924,2.7731607683293937
3356.928,2.7726919777423515
3356.9320000000002,2.7738218832598385
3356.936,2.77533643746413
3356.94,2.774891687420013
3356.944,2.775456640178757
3356.948,2.776117755109201
3356.952,2.7759855321231126
3356.956,2.7763461402669916
3356.96,2.7769591741115858
3356.964,2.7773077619840016
3356.968,2.7775241268703295
3356.972,2.7767187686823327
3356.976,2.778053018814685
3356.98,2.7816831407964
3356.984,2.781863444868339
3356.9880000000003,2.781827384053951
3356.992,2.782837086856812
3356.996,2.7823442557268447
3357.0,2.780721519079389
3357.004,2.778413626958564
3357.0080000000003,2.778281403972475
3357.012,2.778125140443461
3357.016,2.7781732215293116
3357.02,2.778209282343699
3357.024,2.7742666333039563
3357.0280000000002,2.7716702546680274
3357.032,2.768569024630669
3357.036,2.7638931390317047
3357.04,2.7643979904331353
3357.044,2.7783655458727132
3357.0480000000002,2.7858301344510075
3357.052,2.784748310019371
3357.056,2.7768990727542726
3357.06,2.765491835136235
3357.064,2.7600706927065883
3357.068,2.762282422655712
3357.072,2.76227040238425
3357.076,2.7647585985770142
3357.08,2.7671025515122274
3357.0840000000003,2.766525578482021
3357.088,2.768472862458968
3357.092,2.772307329055547
3357.096,2.776586545696244
3357.1,2.7833900193440932
3357.1040000000003,2.7860585196087975
3357.108,2.788594796887413
3357.112,2.789760763219288
3357.116,2.7900011686485406
3357.12,2.7886548982447263
3357.1240000000003,2.787320648112374
3357.128,2.7882462090149964
3357.132,2.7853493235925026
3357.136,2.782849107128275
3357.14,2.7823923368126953
3357.1440000000002,2.7826808233277984
3357.148,2.783365978801168
3357.152,2.7827649652280364
3357.156,2.7810340461374174
3357.16,2.7800604041489443
3357.164,2.774158450860792
3357.168,2.750935286394988
3357.172,2.717843479058362
3357.176,2.679835380693521
3357.1800000000003,2.651659864385112
3357.184,2.6991639772054326
3357.188,2.8091254205455884
3357.192,2.900359280946964
3357.196,2.9921460738356203
3357.2000000000003,3.0756148388721347
3357.204,3.0651932635140335
3357.208,3.017977637208816
3357.212,2.992073952206844
3357.216,2.957876279895657
3357.2200000000003,2.9278736823249276
3357.224,2.9163222014493386
3357.228,2.910504390061425
3357.232,2.875741764991494
3357.236,2.8228525705559138
3357.2400000000002,2.783426080158481
3357.244,2.75085114449475
3357.248,2.7375447039856162
3357.252,2.732748615672026
3357.256,2.727447675957005
3357.26,2.7246709932491373
3357.264,2.72331270257386
3357.268,2.719165708919252
3357.272,2.7167496343552626
3357.2760000000003,2.714321539519811
3357.28,2.7128310258584447
3357.284,2.7097418160925484
3357.288,2.7055587616235526
3357.292,2.703298950588578
3357.2960000000003,2.701988740999151
3357.3,2.69938034209176
3357.304,2.6972767945857994
3357.308,2.69453617269232
3357.312,2.691194537225708
3357.3160000000003,2.688285631531751
3357.32,2.6862421853831036
3357.324,2.684427124392246
3357.328,2.6805926577956667
3357.332,2.6748469680365288
3357.3360000000002,2.67151735284138
3357.34,2.6698345148366105
3357.344,2.6622377032722278
3357.348,2.6569608041001325
3357.352,2.6535710875476703
3357.356,2.644988613723351
3357.36,2.63758412650237
3357.364,2.630492166339417
3357.368,2.621236557313191
3357.372,2.613267117333466
3357.376,2.6048769678525487
3357.38,2.5953088317682935
3357.384,2.5856565537838003
3357.388,2.579369951808844
3357.3920000000003,2.570511011740884
3357.396,2.564212389494465
3357.4,2.5574449766610035
3357.404,2.549463516409816
3357.408,2.5449198537969417
3357.4120000000003,2.5411214480147497
3357.416,2.5383087044924943
3357.42,2.535988792100206
3357.424,2.5354839406987755
3357.428,2.5359647515572807
3357.4320000000002,2.539787197882398
3357.436,2.546206022843443
3357.44,2.5536585911502745
3357.444,2.562192983888743
3357.448,2.5719895051307877
3357.452,2.5829039116188577
3357.456,2.5964267170143183
3357.46,2.612197313173292
3357.464,2.6273188146732824
3357.468,2.642308093187184
3357.472,2.6581628312463956
3357.476,2.6714572514840667
3357.48,2.6854007663807193
3357.484,2.695161226808376
3357.4880000000003,2.705606842709403
3357.492,2.7145379044061384
3357.496,2.721305317239601
3357.5,2.726762520483635
3357.504,2.7306570884375283
3357.5080000000003,2.7343833725909437
3357.512,2.737075913398573
3357.516,2.7403213866934837
3357.52,2.7440116100325116
3357.524,2.7448770695778215
3357.5280000000002,2.745814650751907
3357.532,2.7468844549120814
3357.536,2.7459949548238467
3357.54,2.7448049479490453
3357.544,2.7445044411624795
3357.5480000000002,2.7465478873111278
3357.552,2.7459949548238467
3357.556,2.744901110120747
3357.56,2.7437471640603337
3357.564,2.742376853113594
3357.568,2.74044158940811
3357.572,2.739167440633071
3357.576,2.7386265284172526
3357.58,2.739347744705011
3357.5840000000003,2.738758751403342
3357.588,2.7386265284172526
3357.592,2.7383380419021495
3357.596,2.738975116289669
3357.6,2.7386265284172526
3357.6040000000003,2.738133697287285
3357.608,2.7394799676910995
3357.612,2.7395160285054874
3357.616,2.739972798821068
3357.62,2.7419200827980137
3357.6240000000003,2.7427494815289353
3357.628,2.7448530290348963
3357.632,2.7445044411624795
3357.636,2.7441558532900636
3357.64,2.744059691118362
3357.6440000000002,2.745658387222893
3357.648,2.74587475210922
3357.652,2.7457665696660563
3357.656,2.745694448037281
3357.66,2.7454179817936404
3357.664,2.745225657450238
3357.668,2.7459348534665335
3357.672,2.7471489008842593
3357.676,2.748134563144195
3357.6800000000003,2.748038400972494
3357.684,2.748182644230045
3357.688,2.7480985023298072
3357.692,2.7465238467682025
3357.696,2.74811052260127
3357.7000000000003,2.750490536350871
3357.704,2.7508751850376747
3357.708,2.7514160972534936
3357.712,2.751319935081792
3357.716,2.751283874267404
3357.7200000000003,2.749456793005084
3357.724,2.7493245700189957
3357.728,2.749468813276547
3357.732,2.7498895227777393
3357.736,2.7514160972534936
3357.7400000000002,2.751295894538867
3357.744,2.7521132729983258
3357.748,2.7531470163441125
3357.752,2.752990752815098
3357.756,2.7527142865714573
3357.76,2.7499736646779773
3357.764,2.750454475536483
3357.768,2.7525099419565926
3357.772,2.75478177326303
3357.7760000000003,2.7553827868361616
3357.78,2.7529546920007104
3357.784,2.7485672929168494
3357.788,2.7453458601648646
3357.792,2.7422566503989674
3357.7960000000003,2.735513278108431
3357.8,2.7346838793775095
3357.804,2.7393717852479362
3357.808,2.7347800415492105
3357.812,2.731835075040866
3357.8160000000003,2.741198866510256
3357.82,2.7491442659470557
3357.824,2.745045353378299
3357.828,2.742376853113594
3357.832,2.737520663442691
3357.8360000000002,2.7325202305142358
3357.84,2.7328567981151894
3357.844,2.735284892950641
3357.848,2.7388669338465053
3357.852,2.7392155217189216
3357.856,2.7432783734732915
3357.86,2.7457064683087435
3357.864,2.7484711307451484
3357.868,2.7535917663882294
3357.872,2.7589528074605636
3357.876,2.7624867672705773
3357.88,2.766561639296409
3357.884,2.7675473015563448
3357.888,2.7663572946815447
3357.8920000000003,2.7679559907860747
3357.896,2.7670424501549147
3357.9,2.763592632245139
3357.904,2.76249878754204
3357.908,2.762234341569862
3357.9120000000003,2.7640373822892568
3357.916,2.7657803216513384
3357.92,2.7656601189367116
3357.924,2.7638330376743916
3357.928,2.7615251455535663
3357.9320000000002,2.7552145030356847
3357.936,2.730200318121948
3357.94,2.6954737538664046
3357.944,2.6519002698143646
3357.948,2.6246142535941903
3357.952,2.6939471793906504
3357.956,2.82913917253087
3357.96,2.9404468862748403
3357.964,3.0540985529540245
3357.968,3.1410892575290905
3357.972,3.1271818034468257
3357.976,3.0792930419397004
3357.98,3.058125343894006
3357.984,3.0250575771003057
3357.9880000000003,2.9872538233503287
3357.992,2.959727401700902
3357.996,2.9245801279441666
3358.0,2.8577954996977843
3358.004,2.798751926273337
3358.0080000000003,2.749661137619949
3358.012,2.723565128274575
3358.016,2.7152711409653594
3358.02,2.711749201426808
3358.024,2.706953113113218
3358.0280000000002,2.7027460181012968
3358.032,2.699536605620774
3358.036,2.6965555782980415
3358.04,2.693694753689935
3358.044,2.691062314239619
3358.0480000000002,2.688706341032943
3358.052,2.6860859218540893
3358.056,2.6842588405917693
3358.06,2.6814821578839014
3358.064,2.679174265763076
3358.068,2.677106779071504
3358.072,2.6759408127396282
3358.076,2.673212211117611
3358.08,2.6708562379109346
3358.0840000000003,2.6669736902285046
3358.088,2.66151648698447
3358.092,2.6583912164041856
3358.096,2.6528859320743003
3358.1,2.6491356073779593
3358.1040000000003,2.6442673974355926
3358.108,2.638281302247202
3358.112,2.636201795284167
3358.116,2.629025693220976
3358.12,2.6202508950532546
3358.1240000000003,2.6144691444797292
3358.128,2.608999920964232
3358.132,2.6013309877710724
3358.136,2.589995871781811
3358.14,2.580331573525855
3358.1440000000002,2.5710399036852403
3358.148,2.5610750986427187
3358.152,2.551975753145506
3358.156,2.542251353532237
3358.16,2.53289958233431
3358.164,2.5270577304034707
3358.168,2.5191604120525213
3358.172,2.512873810077565
3358.176,2.506743471631623
3358.1800000000003,2.50239213336215
3358.184,2.499399085767955
3358.188,2.494783301526304
3358.192,2.4948914839694676
3358.196,2.4986418086658087
3358.2000000000003,2.5023079914619117
3358.204,2.5058419512719254
3358.208,2.5134147222933834
3358.212,2.522105378560866
3358.216,2.5344141365386017
3358.2200000000003,2.549896246182471
3358.224,2.5658832072277713
3358.228,2.5819663304447724
3358.232,2.600573710668927
3358.236,2.6186762394916503
3358.2400000000002,2.6340501666923557
3358.244,2.651130972440756
3358.248,2.6656033792817646
3358.252,2.678392948118005
3358.256,2.689619881664103
3358.26,2.700161659736831
3358.264,2.7060155319391326
3358.268,2.712867086672833
3358.272,2.719442175162892
3358.2760000000003,2.7220866348846715
3358.28,2.7236733107177393
3358.284,2.7291545545046993
3358.288,2.732544271057161
3358.292,2.733854480646588
3358.2960000000003,2.7369196498695594
3358.3,2.7362465146676516
3358.304,2.7348521631779867
3358.308,2.733758318474887
3358.312,2.734671859106047
3358.3160000000003,2.735801764623534
3358.32,2.7352969132221037
3358.324,2.733962663089752
3358.328,2.734840142906524
3358.332,2.7344795347626447
3358.3360000000002,2.7320153791128052
3358.34,2.730777291152154
3358.344,2.731137899296033
3358.348,2.7318591155837915
3358.352,2.7317869939550157
3358.356,2.732135581827432
3358.36,2.7321235615559694
3358.364,2.731137899296033
3358.368,2.731137899296033
3358.372,2.7308013316950794
3358.376,2.731222041196272
3358.38,2.7308013316950794
3358.384,2.730957595224094
3358.388,2.7325923521430115
3358.3920000000003,2.73125810201066
3358.396,2.7312941628250473
3358.4,2.7318230547694036
3358.404,2.733758318474887
3358.408,2.7337102373890363
3358.4120000000003,2.735585399737207
3358.416,2.7370638931271105
3358.42,2.7377490486004805
3358.424,2.7382058189160605
3358.428,2.7401891637073947
3358.4320000000002,2.738939055475281
3358.436,2.7400329001783805
3358.44,2.7410426029812416
3358.444,2.7403574475078716
3358.448,2.7417037179116868
3358.452,2.7423047314848183
3358.456,2.743122109944277
3358.46,2.743374535644992
3358.464,2.743711103245946
3358.468,2.743855346503498
3358.472,2.74496121147806
3358.476,2.7473292049561984
3358.48,2.7478220360861667
3358.484,2.7480624415154193
3358.4880000000003,2.748627394274163
3358.492,2.7495168943623973
3358.496,2.749096184861205
3358.5,2.7489399213321914
3358.504,2.751488218882269
3358.5080000000003,2.7525580230424436
3358.512,2.752401759513429
3358.516,2.7530268136294858
3358.52,2.75382015154602
3358.524,2.7519690297407746
3358.5280000000002,2.7514160972534936
3358.532,2.751512259425194
3358.536,2.7514761986108063
3358.54,2.7509713472093758
3358.544,2.749817401148963
3358.5480000000002,2.7458507115662947
3358.552,2.7390953190042953
3358.556,2.7321956831847447
3358.56,2.733662156303186
3358.564,2.7379053121294947
3358.568,2.7306931492519158
3358.572,2.7309095141382436
3358.576,2.742941805872338
3358.58,2.743711103245946
3358.5840000000003,2.7399126974637547
3358.588,2.7384462243453136
3358.592,2.73130618309651
3358.596,2.7271832299848273
3358.6,2.7296594059061294
3358.6040000000003,2.731690831783314
3358.608,2.73518873077894
3358.612,2.7388909743894305
3358.616,2.742352812570669
3358.62,2.7421244274128784
3358.6240000000003,2.744816968220508
3358.628,2.753495604216529
3358.632,2.7596259426624705
3358.636,2.7623184834701
3358.64,2.7640373822892568
3358.6440000000002,2.7656961797510995
3358.648,2.7656360783937863
3358.652,2.764734558034089
3358.656,2.7652995107928326
3358.66,2.766778004182737
3358.664,2.767679524542434
3358.668,2.767583362370733
3358.672,2.769037815217711
3358.676,2.766237091966918
3358.6800000000003,2.766092848709367
3358.684,2.7668741663544374
3358.688,2.7652273891640573
3358.692,2.761236659038463
3358.696,2.7405377515798115
3358.7000000000003,2.704008146604873
3358.704,2.6609996153115767
3358.708,2.6228112128747956
3358.712,2.670675933838995
3358.716,2.800951635950999
3358.7200000000003,2.9142066336719155
3358.724,3.0267163745621493
3358.728,3.121532275859389
3358.732,3.118911856680535
3358.736,3.0684988381662572
3358.7400000000002,3.0457084034731077
3358.744,3.012496393421855
3358.748,2.9808950997465966
3358.752,2.95907830704192
3358.756,2.936203730448532
3358.76,2.8766673258941164
3358.764,2.8166020293953453
3358.768,2.7662491122383805
3358.772,2.733602054945873
3358.7760000000003,2.7229280538870557
3358.78,2.7208124861096326
3358.784,2.717002060055978
3358.788,2.7121458703850747
3358.792,2.7088162551899257
3358.7960000000003,2.705282295379912
3358.8,2.703070565430788
3358.804,2.7000414570222047
3358.808,2.698659125804002
3358.812,2.6984187203747494
3358.8160000000003,2.6941154631911273
3358.82,2.690509381752338
3358.824,2.6870595638425625
3358.828,2.683874191904965
3358.832,2.68065275915298
3358.8360000000002,2.6800757861227735
3358.84,2.6784770900182435
3358.844,2.6755441437813614
3358.848,2.6737771638763546
3358.852,2.6710605825258
3358.856,2.667442480815547
3358.86,2.6631993249892383
3358.864,2.65809070961762
3358.868,2.653631188904983
3358.872,2.6475970126307424
3358.876,2.642488397259123
3358.88,2.6369831129292383
3358.884,2.630492166339417
3358.888,2.6213447397563545
3358.8920000000003,2.6128584281037366
3358.896,2.604432217808432
3358.9,2.5964267170143183
3358.904,2.587050905273466
3358.908,2.5765812488295134
3358.9120000000003,2.5676261465898524
3358.916,2.5644407746522555
3358.92,2.5582262943060745
3358.924,2.550208773240499
3358.928,2.542684083304892
3358.9320000000002,2.538549109921747
3358.936,2.53271927826237
3358.94,2.528980973837492
3358.944,2.527634703433677
3358.948,2.5242329666097523
3358.952,2.5208793108716776
3358.956,2.523511750321995
3358.96,2.5266971222595918
3358.964,2.531192703786616
3358.968,2.538993859965864
3358.972,2.546891178316813
3358.976,2.556062645442801
3358.98,2.571749099701535
3358.984,2.5867984795727503
3358.9880000000003,2.6038191839638376
3358.992,2.6201907936959414
3358.996,2.6359373493119893
3359.0,2.6498207628513293
3359.004,2.666528940184387
3359.0080000000003,2.6846434892785735
3359.012,2.698599024446689
3359.016,2.7086960524752994
3359.02,2.719057526476088
3359.024,2.7269668650985
3359.0280000000002,2.7324481088854604
3359.032,2.737845210772182
3359.036,2.741511393568284
3359.04,2.7429778666867257
3359.044,2.7460069750953093
3359.0480000000002,2.7481706239585826
3359.052,2.7487596172602515
3359.056,2.749312549747533
3359.06,2.751139631009853
3359.064,2.750610739065497
3359.068,2.750526597165259
3359.072,2.750117907935529
3359.076,2.748879819974878
3359.08,2.7476176914713015
3359.0840000000003,2.74610313726701
3359.088,2.747040718441095
3359.092,2.749048103775355
3359.096,2.75107952965254
3359.1,2.7503943741791694
3359.1040000000003,2.7484470902022236
3359.108,2.74993760386359
3359.112,2.750382353907707
3359.116,2.7487355767173267
3359.12,2.74925244839022
3359.1240000000003,2.7512117526386284
3359.128,2.7509473066664505
3359.132,2.7496491173484867
3359.136,2.751524279696657
3359.14,2.7516084215968952
3359.1440000000002,2.7507670025945115
3359.148,2.752690246028532
3359.152,2.754192779961361
3359.156,2.7546014691910905
3359.16,2.754144698875511
3359.164,2.7543129826759873
3359.168,2.756464611267799
3359.172,2.7568011788687525
3359.176,2.7584239155162074
3359.1800000000003,2.759205233161279
3359.184,2.7593735169617553
3359.188,2.759024929089339
3359.192,2.76140494283894
3359.196,2.762907476771769
3359.2000000000003,2.766778004182737
3359.204,2.767246794769779
3359.208,2.7666337609251848
3359.212,2.7683406394728785
3359.216,2.7671987136839284
3359.2200000000003,2.7671025515122274
3359.224,2.7679680110575373
3359.228,2.7706004505078536
3359.232,2.770660551865167
3359.236,2.7706365113222415
3359.2400000000002,2.77076873430833
3359.244,2.7724275317701736
3359.248,2.77117742353806
3359.252,2.7710452005519706
3359.256,2.7698311531342448
3359.26,2.770804795122718
3359.264,2.773184808872319
3359.268,2.771982781726056
3359.272,2.769374382818665
3359.2760000000003,2.769037815217711
3359.28,2.7690498354891737
3359.284,2.771273585709761
3359.288,2.7699032747630206
3359.292,2.768460842187505
3359.2960000000003,2.765648098665249
3359.3,2.763857078217317
3359.304,2.7639291998460926
3359.308,2.7669823487976015
3359.312,2.778750194559518
3359.3160000000003,2.7826207219704853
3359.32,2.7761658361950516
3359.324,2.765684159479637
3359.328,2.7565006720821867
3359.332,2.7558034963373537
3359.3360000000002,2.756933401854841
3359.34,2.758904726374713
3359.344,2.7639893012034062
3359.348,2.7667539636398115
3359.352,2.7668381055400495
3359.356,2.7687012476167574
3359.36,2.772127024983608
3359.364,2.777031295740361
3359.368,2.7818153637824885
3359.372,2.7862748844951253
3359.376,2.7881500468432954
3359.38,2.789508337518573
3359.384,2.78858277661595
3359.388,2.789400155075409
3359.3920000000003,2.790722384936299
3359.396,2.788931364488367
3359.4,2.7857099317363816
3359.404,2.786395087209751
3359.408,2.7862388236807374
3359.4120000000003,2.786467208838527
3359.416,2.7852892222351895
3359.42,2.7839429518313743
3359.424,2.7851810397920254
3359.428,2.7840030531886875
3359.4320000000002,2.772151065526533
3359.436,2.7436510018886326
3359.44,2.711424654097317
3359.444,2.671962102885497
3359.448,2.6496765195937777
3359.452,2.715066796350494
3359.456,2.8216265028667253
3359.46,2.9068261869938596
3359.464,3.0041182642124014
3359.468,3.06508508107087
3359.472,3.034998341599902
3359.476,2.989597776285542
3359.48,2.9629127736384993
3359.484,2.932657750367055
3359.4880000000003,2.916069775748624
3359.492,2.9115020725928233
3359.496,2.9078839708825712
3359.5,2.874203170244277
3359.504,2.824367124760206
3359.5080000000003,2.792116736425964
3359.512,2.758700381759848
3359.516,2.7427494815289353
3359.52,2.7386024878743274
3359.524,2.738253900001911
3359.5280000000002,2.7363667173822783
3359.532,2.7331452846302926
3359.536,2.7305368857229015
3359.54,2.7288540477181336
3359.544,2.7274717164999305
3359.5480000000002,2.727123128627514
3359.552,2.7273755543282294
3359.556,2.7227116890007284
3359.56,2.7212331956108247
3359.564,2.7232646214880094
3359.568,2.7205841009518426
3359.572,2.7171823641279174
3359.576,2.71628084376822
3359.58,2.713444059703039
3359.5840000000003,2.7096336336493847
3359.588,2.708323424059958
3359.592,2.7052342142940615
3359.596,2.7013276260687062
3359.6,2.699440443449073
3359.6040000000003,2.693045659030953
3359.608,2.688610178861242
3359.612,2.6851723812229293
3359.616,2.679114164405763
3359.62,2.6747027247789776
3359.6240000000003,2.6696782513075967
3359.628,2.6654471157527504
3359.632,2.6592085948636446
3359.636,2.653631188904983
3359.64,2.644868411008724
3359.6440000000002,2.6372956399872667
3359.648,2.630708531225744
3359.652,2.623616571062792
3359.656,2.6160197594984083
3359.66,2.612618022674484
3359.664,2.608014258704296
3359.668,2.6028335217039014
3359.672,2.59903511592171
3359.676,2.595909845341425
3359.6800000000003,2.591258000285387
3359.684,2.5861974659996187
3359.688,2.583913614421719
3359.692,2.5851997834682208
3359.696,2.5889741487074867
3359.7000000000003,2.591197898928074
3359.704,2.5945996357519983
3359.708,2.5993837037941265
3359.712,2.606030913912962
3359.716,2.6136036849344193
3359.7200000000003,2.6238689967635067
3359.724,2.6348194640659646
3359.728,2.6469358977002977
3359.732,2.6606870882535483
3359.736,2.6721424069574367
3359.7400000000002,2.684138637877143
3359.744,2.6966276999268177
3359.748,2.707986856459004
3359.752,2.7176992358008105
3359.756,2.7267264596692478
3359.76,2.7350444875213884
3359.764,2.740261285336171
3359.768,2.7452977790790136
3359.772,2.749601036262636
3359.7760000000003,2.7530388339009484
3359.78,2.754517327290852
3359.784,2.756116023395382
3359.788,2.7595418007622325
3359.792,2.7610082738806736
3359.7960000000003,2.7607558481799583
3359.8,2.758291692530119
3359.804,2.7594696791334568
3359.808,2.759060989903727
3359.812,2.7591932128898162
3359.8160000000003,2.7594816994049194
3359.82,2.75678915859729
3359.824,2.756416530181948
3359.828,2.7542769218615994
3359.832,2.7540966177896604
3359.8360000000002,2.7546495502769415
3359.84,2.7552385435786104
3359.844,2.754589448919628
3359.848,2.7556231922654146
3359.852,2.7568011788687525
3359.856,2.7546255097340158
3359.86,2.7548538948918058
3359.864,2.754433185390614
3359.868,2.7524498405992794
3359.872,2.7528945906433973
3359.876,2.752425800056354
3359.88,2.7528585298290094
3359.884,2.7537720704601694
3359.888,2.7522935770702657
3359.8920000000003,2.7545413678337773
3359.896,2.7580993681867163
3359.9,2.756825219411678
3359.904,2.7558034963373537
3359.908,2.7565367328965746
3359.9120000000003,2.7568853207689905
3359.916,2.7568853207689905
3359.92,2.7580392668294036
3359.924,2.758988868274951
3359.928,2.760371199493154
3359.9320000000002,2.7593013953329795
3359.936,2.760142814335364
3359.94,2.7606596860082573
3359.944,2.759565841305158
3359.948,2.7601788751497516
3359.952,2.761825652340132
3359.956,2.762174240212549
3359.96,2.7618376726115947
3359.964,2.761693429354043
3359.968,2.7625949497137405
3359.972,2.7632560646441853
3359.976,2.762751213242755
3359.98,2.762054037497922
3359.984,2.759385537233218
3359.9880000000003,2.7585200776879084
3359.992,2.7606356454653316
3359.996,2.7579791654720904
3360.0,2.7543490434903757
3360.004,2.7524738811422047
3360.0080000000003,2.750370333636244
3360.012,2.747810015814704
3360.016,2.7540966177896604
3360.02,2.7648066796628648
3360.024,2.7672227542268537
3360.0280000000002,2.7597701859200225
3360.032,2.7502861917360057
3360.036,2.741090684067092
3360.04,2.7375927850714663
3360.044,2.739059258189908
3360.0480000000002,2.7414753327538968
3360.052,2.7458867723806826
3360.056,2.747545569842526
3360.06,2.74975729979165
3360.064,2.751428117524956
3360.068,2.7538802529033326
3360.072,2.7609241319804347
3360.076,2.7671987136839284
3360.08,2.76894165304601
3360.0840000000003,2.7671386123266153
3360.088,2.7652153688925947
3360.092,2.766092848709367
3360.096,2.766176990609605
3360.1,2.7655759770364736
3360.1040000000003,2.765419713507459
3360.108,2.767907909700224
3360.112,2.768064173229238
3360.116,2.7652995107928326
3360.12,2.7643739498902105
3360.1240000000003,2.7669583082546763
3360.128,2.766826085268587
3360.132,2.765936585180352
3360.136,2.764109503918032
3360.14,2.755250563850073
3360.1440000000002,2.727976567901361
3360.148,2.6944400105206183
3360.152,2.6553861485385277
3360.156,2.633040463889495
3360.16,2.6958944633675967
3360.164,2.8090893597312006
3360.168,2.90184979460833
3360.172,3.0040581628550878
3360.176,3.0720087574333452
3360.1800000000003,3.044422234426606
3360.184,2.9953795268590677
3360.188,2.9702451392307054
3360.192,2.935758980404414
3360.196,2.91646644470689
3360.2000000000003,2.9065377004787565
3360.204,2.8970176454803522
3360.208,2.8531196140988206
3360.212,2.8006751697073584
3360.216,2.7596019021195453
3360.2200000000003,2.7287699058178947
3360.224,2.719285911633878
3360.228,2.7140450732761705
3360.232,2.7098980796215626
3360.236,2.7068930117559047
3360.2400000000002,2.7038518830758593
3360.244,2.700882876024589
3360.248,2.6993923623632226
3360.252,2.6977215446299168
3360.256,2.696904166170458
3360.26,2.694247686177216
3360.264,2.687888962573484
3360.268,2.6844511649351714
3360.272,2.680772961867606
3360.2760000000003,2.678981941419674
3360.28,2.685148340680004
3360.284,2.6877447193159325
3360.288,2.6831169148028198
3360.292,2.6760610154542546
3360.2960000000003,2.6717938190850203
3360.3,2.666372676655373
3360.304,2.661504466713007
3360.308,2.6583551555897977
3360.312,2.6559150404828835
3360.3160000000003,2.6542322024781146
3360.32,2.6481138843036356
3360.324,2.642969208117629
3360.328,2.6380769576323377
3360.332,2.628244375575905
3360.3360000000002,2.6197700841947498
3360.34,2.6083508263052497
3360.344,2.6021002851446813
3360.348,2.5988307713068455
3360.352,2.5888900068072482
3360.356,2.5797185396812607
3360.36,2.568960396722205
3360.364,2.5603538823549603
3360.368,2.5525767667186376
3360.372,2.545352583569596
3360.376,2.5381644612349423
3360.38,2.534077568937648
3360.384,2.5271779331180975
3360.388,2.5232112435354286
3360.3920000000003,2.5247979193684964
3360.396,2.521732750145525
3360.4,2.520963452771916
3360.404,2.5234035678788307
3360.408,2.5263725749301007
3360.4120000000003,2.5308801767285876
3360.416,2.53637344078701
3360.42,2.5420349886459097
3360.424,2.555305368340655
3360.428,2.57126828884303
3360.4320000000002,2.585548371340637
3360.436,2.5985783456061298
3360.44,2.6103341710965835
3360.444,2.6259244631836167
3360.448,2.6414426336418746
3360.452,2.661215980197904
3360.456,2.674810907222141
3360.46,2.686266225926029
3360.464,2.695978605267835
3360.468,2.704561079092154
3360.472,2.710246667493979
3360.476,2.7162327626823695
3360.48,2.7235531080031126
3360.484,2.7275318178572436
3360.4880000000003,2.730200318121948
3360.492,2.7311619398389584
3360.496,2.730044054592934
3360.5,2.7271471691704394
3360.504,2.728950209889834
3360.5080000000003,2.7298156694351436
3360.512,2.7274116151426173
3360.516,2.728397277402553
3360.52,2.7293709193910263
3360.524,2.7271471691704394
3360.5280000000002,2.7303565816509625
3360.532,2.732724575129101
3360.536,2.727459696228468
3360.54,2.7277962638294215
3360.544,2.729178595047624
3360.5480000000002,2.7301522370360973
3360.552,2.7267264596692478
3360.556,2.7235891688175005
3360.56,2.7244065472769594
3360.564,2.7242022026620947
3360.568,2.7251277635647173
3360.572,2.727339493513842
3360.576,2.7268466623838736
3360.58,2.724418567548422
3360.5840000000003,2.7230602768731447
3360.588,2.7255725136088347
3360.592,2.7250917027503294
3360.596,2.724490689177198
3360.6,2.7242863445623335
3360.6040000000003,2.7283251557737773
3360.608,2.7303806221938873
3360.612,2.7288300071752083
3360.616,2.731702852054777
3360.62,2.731931237212567
3360.6240000000003,2.731570629068688
3360.628,2.7293348585766384
3360.632,2.730128196493172
3360.636,2.7332534670734563
3360.64,2.7354892375655058
3360.6440000000002,2.738518345974089
3360.648,2.7358859065237726
3360.652,2.735970048424011
3360.656,2.736426818739591
3360.66,2.7337943792892747
3360.664,2.731402345268211
3360.668,2.7315586087972257
3360.672,2.7293228383051757
3360.676,2.733746298203424
3360.6800000000003,2.7403574475078716
3360.684,2.740369467779334
3360.688,2.739960778549605
3360.692,2.7370999539414984
3360.696,2.7352127713218652
3360.7000000000003,2.740369467779334
3360.704,2.7432423126589036
3360.708,2.7424489747423695
3360.712,2.7425210963711453
3360.716,2.740958461081003
3360.7200000000003,2.7417878598119247
3360.724,2.7413791705821953
3360.728,2.740153102893007
3360.732,2.741463312482434
3360.736,2.74135513003927
3360.7400000000002,2.738434204073851
3360.744,2.739816535292053
3360.748,2.742941805872338
3360.752,2.7419561436124016
3360.756,2.736522980911292
3360.76,2.736883589055171
3360.764,2.7392876433476974
3360.768,2.738578447331402
3360.772,2.7362224741247263
3360.7760000000003,2.7369557106839473
3360.78,2.73518873077894
3360.784,2.7325202305142358
3360.788,2.72605332446734
3360.792,2.720536019865992
3360.7960000000003,2.723745432346515
3360.8,2.7212091550678994
3360.804,2.719742681949458
3360.808,2.7243704864625715
3360.812,2.7351286294216273
3360.8160000000003,2.7299118316068447
3360.82,2.7275077773143184
3360.824,2.7248993784069278
3360.828,2.7202355130794262
3360.832,2.719971067107248
3360.8360000000002,2.7211490537105862
3360.84,2.7231203782304583
3360.844,2.72171400646933
3360.848,2.7217861280981057
3360.852,2.7275438381287063
3360.856,2.728697784189119
3360.86,2.728373236859628
3360.864,2.7373283390992884
3360.868,2.7486033537312373
3360.872,2.7525339824995183
3360.876,2.7552265233071473
3360.88,2.753483583945066
3360.884,2.7520291310980878
3360.888,2.7527503473858452
3360.8920000000003,2.7514160972534936
3360.896,2.750526597165259
3360.9,2.749613056534099
3360.904,2.749841441691889
3360.908,2.7495890159911736
3360.9120000000003,2.749793360606038
3360.916,2.7503342728218563
3360.92,2.7498053808775005
3360.924,2.745045353378299
3360.928,2.726209587996354
3360.9320000000002,2.6933341455460567
3360.936,2.6503977358815356
3360.94,2.6117766036720993
3360.944,2.6600980949518793
3360.948,2.791227236337729
3360.952,2.9059126463626996
3360.956,3.0181218804663676
3360.96,3.118082457949614
3360.964,3.124669566711136
3360.968,3.0710952168021857
3360.972,3.0440255654683392
3360.976,3.0141551908836988
3360.98,2.976519720934199
3360.984,2.948981279013309
3360.9880000000003,2.9215750600785086
3360.992,2.8625074461111355
3360.996,2.79944910201817
3361.0,2.744756866863195
3361.004,2.7117612216982705
3361.0080000000003,2.703190768145414
3361.012,2.696219010697088
3361.016,2.6921801994856436
3361.02,2.6882375504459004
3361.024,2.6835977256613246
3361.0280000000002,2.6792584076633146
3361.032,2.6779481980738877
3361.036,2.678356887303617
3361.04,2.675460001881123
3361.044,2.6725751367300914
3361.0480000000002,2.6696542107646715
3361.052,2.666853487513878
3361.056,2.665194690052035
3361.06,2.6628266965738967
3361.064,2.660074054408954
3361.068,2.6548692768656346
3361.072,2.6505059183246993
3361.076,2.648943283034557
3361.08,2.6443755798787567
3361.0840000000003,2.6401444443239104
3361.088,2.6392669645071383
3361.092,2.638461606319142
3361.096,2.6324154097734382
3361.1,2.6233040440047635
3361.1040000000003,2.616584712257152
3361.108,2.613315198419316
3361.112,2.607281022145075
3361.116,2.602484933831485
3361.12,2.598097534747625
3361.1240000000003,2.5887577838211597
3361.128,2.576689431272677
3361.132,2.5674939236037635
3361.136,2.5586710443501923
3361.14,2.54934331369519
3361.1440000000002,2.539282346480967
3361.148,2.529834413111339
3361.152,2.521780831231375
3361.156,2.515157661655465
3361.16,2.507945498777886
3361.164,2.5018993022321827
3361.168,2.4988701938235995
3361.172,2.4949636055982434
3361.176,2.4905161051570697
3361.1800000000003,2.4846141518689175
3361.184,2.481957671875676
3361.188,2.4824625232771065
3361.192,2.485287287070825
3361.196,2.493893801438069
3361.2000000000003,2.50170697788878
3361.204,2.507572870362545
3361.208,2.515554330613732
3361.212,2.5326471566335944
3361.216,2.547588354061646
3361.2200000000003,2.5648134030675966
3361.224,2.5818821885445344
3361.228,2.5965709602718703
3361.232,2.6146614688231313
3361.236,2.6325235922166015
3361.2400000000002,2.6451809380667526
3361.244,2.658114750160545
3361.248,2.6684041025325578
3361.252,2.6771789007002793
3361.256,2.6835376243040114
3361.26,2.6941395037340525
3361.264,2.7059193697674315
3361.268,2.7088883768187015
3361.272,2.711220309482452
3361.2760000000003,2.7184565129029563
3361.28,2.716340945125533
3361.284,2.7131315326450105
3361.288,2.7145018435917505
3361.292,2.716316904582608
3361.2960000000003,2.7157158910094763
3361.3,2.7156197288377752
3361.304,2.721269256425213
3361.308,2.7217260267407926
3361.312,2.7181920669307784
3361.3160000000003,2.719634499506294
3361.32,2.72034369552259
3361.324,2.719670560320682
3361.328,2.7179997425873763
3361.332,2.71810792503054
3361.3360000000002,2.7182641885595547
3361.34,2.7155115463946116
3361.344,2.7147903301068537
3361.348,2.7156197288377752
3361.352,2.715102857164882
3361.356,2.7147542692924658
3361.36,2.713756586761068
3361.364,2.713696485403754
3361.368,2.7158000329097147
3361.372,2.7157038707380137
3361.376,2.7166294316406363
3361.38,2.7168818573413516
3361.384,2.7147542692924658
3361.388,2.714874472007092
3361.3920000000003,2.7213654185969136
3361.396,2.722507344385864
3361.4,2.7214014794113015
3361.404,2.7195984386919063
3361.408,2.7241060404903936
3361.4120000000003,2.728373236859628
3361.416,2.7268226218409484
3361.42,2.7262576690822047
3361.424,2.7265822164116957
3361.428,2.726570196140233
3361.4320000000002,2.728048689530137
3361.436,2.7294190004768772
3361.44,2.730933554681169
3361.444,2.729671426177592
3361.448,2.730200318121948
3361.452,2.7319432574840294
3361.456,2.731137899296033
3361.46,2.7288780882610584
3361.464,2.725163824379105
3361.468,2.7258489798524757
3361.472,2.7305128451799763
3361.476,2.7343232712336305
3361.48,2.735693582180371
3361.484,2.732604372414474
3361.4880000000003,2.728216973330614
3361.492,2.7368114674263953
3361.496,2.7439154478608105
3361.5,2.740958461081003
3361.504,2.7390832987328326
3361.5080000000003,2.7377490486004805
3361.512,2.7363667173822783
3361.516,2.738001474301196
3361.52,2.737989454029733
3361.524,2.739564109591338
3361.5280000000002,2.742400893656519
3361.532,2.7407541164661384
3361.536,2.7387347108604168
3361.54,2.738975116289669
3361.544,2.7377851094148684
3361.5480000000002,2.738085616201434
3361.552,2.7377851094148684
3361.556,2.7359820686954737
3361.56,2.733638115760261
3361.564,2.7323038656279084
3361.568,2.7350084267070005
3361.572,2.7325562913286237
3361.576,2.7268226218409484
3361.58,2.722038553798821
3361.5840000000003,2.724094020218931
3361.588,2.722916033615593
3361.592,2.7167135735408747
3361.596,2.724839277049614
3361.6,2.73427519014778
3361.6040000000003,2.730596987080215
3361.608,2.7292386964049373
3361.612,2.722507344385864
3361.616,2.7165332694689353
3361.62,2.7187449994180595
3361.6240000000003,2.7224472430285505
3361.628,2.7264860542399947
3361.632,2.7254523108942084
3361.636,2.727928486815511
3361.64,2.731041737124332
3361.6440000000002,2.731173960110421
3361.648,2.736607122811531
3361.652,2.7417758395404626
3361.656,2.7484110293878357
3361.66,2.7510915499240025
3361.664,2.750117907935529
3361.668,2.749396691647771
3361.672,2.7498895227777393
3361.676,2.7485312321024615
3361.6800000000003,2.7494808335480094
3361.684,2.7506588201513473
3361.688,2.751295894538867
3361.692,2.74925244839022
3361.696,2.7477619347288536
3361.7000000000003,2.748927901060729
3361.704,2.749312549747533
3361.708,2.75085114449475
3361.712,2.7490841645897426
3361.716,2.7332534670734563
3361.7200000000003,2.698490842003525
3361.724,2.658535459661737
3361.728,2.6140003538926866
3361.732,2.6330645044324203
3361.736,2.7518969081119984
3361.7400000000002,2.873782460743085
3361.744,2.980883079475134
3361.748,3.0919624080613146
3361.752,3.114969207640792
3361.756,3.0653495270430478
3361.76,3.033964598254116
3361.764,3.006582419862241
3361.768,2.9729256597668723
3361.772,2.9503275494171244
3361.7760000000003,2.930890770462048
3361.78,2.8815956371937954
3361.784,2.814702826504249
3361.788,2.762354544284488
3361.792,2.720932688824259
3361.7960000000003,2.703094605973713
3361.8,2.6992721596485962
3361.804,2.695461733594942
3361.808,2.6907738277245157
3361.812,2.6884899761466157
3361.8160000000003,2.685520969095346
3361.82,2.684499246021022
3361.824,2.682371657972136
3361.828,2.6771428398858914
3361.832,2.6743060558207103
3361.8360000000002,2.6717577582706324
3361.84,2.669570068864433
3361.844,2.6686084471474225
3361.848,2.664906203536932
3361.852,2.66293487901706
3361.856,2.6597374868080004
3361.86,2.6559150404828835
3361.864,2.654364425464204
3361.868,2.6500251074661936
3361.872,2.645373262410155
3361.876,2.6425244580735114
3361.88,2.6381490792611135
3361.884,2.6341102680496693
3361.888,2.634038146420893
3361.8920000000003,2.62707840924403
3361.896,2.621849591157785
3361.9,2.6151783404960245
3361.904,2.6075935492031035
3361.908,2.598866832121233
3361.9120000000003,2.590909412412971
3361.916,2.5818100669157587
3361.92,2.5704148495691834
3361.924,2.563370970492081
3361.928,2.560065395839857
3361.9320000000002,2.5498481650966203
3361.936,2.5396910357106965
3361.94,2.5306157307564097
3361.944,2.5218890136745387
3361.948,2.5155903914281197
3361.952,2.507320444661829
3361.956,2.503690322680115
3361.96,2.4986898897516596
3361.964,2.496117551658656
3361.968,2.4955525988999123
3361.972,2.4940741055100086
3361.976,2.4945428960970513
3361.98,2.496838767946414
3361.984,2.500805457529083
3361.9880000000003,2.507717113620096
3361.992,2.517729999748468
3361.996,2.5270577304034707
3362.0,2.537082636803306
3362.004,2.551759388259179
3362.0080000000003,2.566400078900664
3362.012,2.5884332364916687
3362.016,2.6083628465767124
3362.02,2.622270300658977
3362.024,2.638221200889889
3362.0280000000002,2.655446249895841
3362.032,2.675267677537721
3362.036,2.684210759505919
3362.04,2.685605110995584
3362.044,2.6906896858242773
3362.0480000000002,2.6981422541311093
3362.052,2.7056669440667163
3362.056,2.712530519071879
3362.06,2.719093587290476
3362.064,2.723180479587771
3362.068,2.7250917027503294
3362.072,2.7260653447388026
3362.076,2.7259691825671015
3362.08,2.727363534056767
3362.0840000000003,2.727928486815511
3362.088,2.7274957570428557
3362.092,2.727123128627514
3362.096,2.7269668650985
3362.1,2.727748182743571
3362.1040000000003,2.726774540755098
3362.108,2.7246469527062125
3362.112,2.7232526012165468
3362.116,2.7235891688175005
3362.12,2.723276641759472
3362.1240000000003,2.72285593225828
3362.128,2.724274324290871
3362.132,2.7270029259128883
3362.136,2.7251518041076426
3362.14,2.725836959581013
3362.1440000000002,2.7257888784951625
3362.148,2.727892426001123
3362.152,2.72856556120303
3362.156,2.729755568077831
3362.16,2.7273515137853046
3362.164,2.7271111083560515
3362.168,2.728012628715749
3362.172,2.7311258790245705
3362.176,2.731041737124332
3362.1800000000003,2.732424068342535
3362.184,2.7321235615559694
3362.188,2.7347439807348226
3362.192,2.7365710619971426
3362.196,2.7370037917697974
3362.2000000000003,2.734467514491182
3362.204,2.734635798291659
3362.208,2.7365350011827547
3362.212,2.7367633863405447
3362.216,2.738025514844121
3362.2200000000003,2.7389871365611316
3362.224,2.737051872855648
3362.228,2.7373523796422137
3362.232,2.7391794609045337
3362.236,2.7404536096795726
3362.2400000000002,2.7419922044267895
3362.244,2.7425811977284584
3362.248,2.7422806909418926
3362.252,2.7428456437006363
3362.256,2.7449491912065973
3362.26,2.7445044411624795
3362.264,2.74536990070779
3362.268,2.743927468132273
3362.272,2.7425210963711453
3362.2760000000003,2.743903427589348
3362.28,2.74628344133895
3362.284,2.746607988668441
3362.288,2.7473893063135115
3362.292,2.747521529299601
3362.2960000000003,2.7498053808775005
3362.3,2.7486394145456257
3362.304,2.7434586775452305
3362.308,2.744264035733227
3362.312,2.747124860341334
3362.3160000000003,2.7484110293878357
3362.32,2.7495048740909347
3362.324,2.7498775025062767
3362.328,2.7526541852141446
3362.332,2.7519690297407746
3362.3360000000002,2.74975729979165
3362.34,2.751404076982031
3362.344,2.7521493338127136
3362.348,2.74993760386359
3362.352,2.7493726511048457
3362.356,2.7486394145456257
3362.36,2.746535867039665
3362.364,2.7427134207145474
3362.368,2.737893291858032
3362.372,2.738782791946267
3362.376,2.737148035027349
3362.38,2.7293348585766384
3362.384,2.7308373925094673
3362.388,2.7459709142809214
3362.3920000000003,2.752690246028532
3362.396,2.7461151575384726
3362.4,2.7423287720277436
3362.404,2.735477217294043
3362.408,2.730524865451439
3362.4120000000003,2.732844777843727
3362.416,2.7342030685190046
3362.42,2.737304298556363
3362.424,2.740958461081003
3362.428,2.7434947383596184
3362.4320000000002,2.74432413709054
3362.436,2.7455381845082663
3362.44,2.75158438105397
3362.444,2.75752239515651
3362.448,2.7606596860082573
3362.452,2.7609000914375095
3362.456,2.761693429354043
3362.46,2.7664654771247084
3362.464,2.763628693059527
3362.468,2.7637128349597657
3362.472,2.764181625546808
3362.476,2.7622944429271747
3362.48,2.761140496866762
3362.484,2.7644941526048363
3362.4880000000003,2.761284740124314
3362.492,2.7611525171382247
3362.496,2.762751213242755
3362.5,2.7607558481799583
3362.504,2.7546856110913294
3362.5080000000003,2.734840142906524
3362.512,2.706748768498353
3362.516,2.6638724601911457
3362.52,2.629939233852136
3362.524,2.670543710852906
3362.5280000000002,2.7777765525710447
3362.532,2.871618811879811
3362.536,2.967047747021645
3362.54,3.051862782461975
3362.544,3.0417897949762898
3362.5480000000002,2.9934562834250467
3362.552,2.965713496889293
3362.556,2.9403146632887514
3362.56,2.9158654311337586
3362.564,2.909494687258564
3362.568,2.9095788291588023
3362.572,2.8852738402613607
3362.576,2.8254128883774547
3362.58,2.780336870392585
3362.5840000000003,2.742112407141416
3362.588,2.7231203782304583
3362.592,2.7204638982372162
3362.596,2.7198148035782337
3362.6,2.7147302287495405
3362.6040000000003,2.7093451471342815
3362.608,2.707205538813933
3362.612,2.704537038549229
3362.616,2.7056188629808657
3362.62,2.701916619370375
3362.6240000000003,2.700101558379518
3362.628,2.6991038758481194
3362.632,2.7019767207276884
3362.636,2.6995606461636994
3362.64,2.6961589093397746
3362.6440000000002,2.691807571070302
3362.648,2.688249570717363
3362.652,2.689487658678014
3362.656,2.690617564195502
3362.66,2.6849319757936767
3362.664,2.6817466038560793
3362.668,2.679078103591375
3362.672,2.675844650567927
3362.676,2.6691613796347036
3362.6800000000003,2.666012068511494
3362.684,2.6605428449959962
3362.688,2.654592810621994
3362.692,2.647248424758326
3362.696,2.6445078028648457
3362.7000000000003,2.6390265590778856
3362.704,2.633689558548477
3362.708,2.626417294313585
3362.712,2.61936139496502
3362.716,2.6132190362476155
3362.7200000000003,2.6119088266581887
3362.724,2.6021844270449193
3362.728,2.5932653856196466
3362.732,2.585933020027441
3362.736,2.577542870546524
3362.7400000000002,2.568311302063223
3362.744,2.566664524872842
3362.748,2.566844828944782
3362.752,2.564248450308853
3362.756,2.560005294482544
3362.76,2.5572887131319892
3362.764,2.5579618483338966
3362.768,2.560918835113704
3362.772,2.5613756054292844
3362.7760000000003,2.5637075380930345
3362.78,2.5680228155481197
3362.784,2.5733477958060655
3362.788,2.582050472345011
3362.792,2.5920633584733834
3362.7960000000003,2.6030018055043787
3362.8,2.6157673337976934
3362.804,2.626777902457464
3362.808,2.6436062825051483
3362.812,2.6586196015619756
3362.8160000000003,2.6728876637881203
3362.82,2.686686935427221
3362.824,2.697577301372365
3362.828,2.708311403788495
3362.832,2.7147061882066152
3362.8360000000002,2.7193339927197284
3362.84,2.727555858400169
3362.844,2.732460129156923
3362.848,2.7339506428182894
3362.852,2.738326021630687
3362.856,2.7406699745659
3362.86,2.7420042246982526
3362.864,2.744648684420031
3362.868,2.744432319533704
3362.872,2.7423648328421315
3362.876,2.7440837316612874
3362.88,2.7468844549120814
3362.884,2.7442159546473763
3362.888,2.740141082621544
3362.8920000000003,2.7392756230762347
3362.896,2.741655636825836
3362.9,2.7396001704057262
3362.904,2.7389871365611316
3362.908,2.745694448037281
3362.9120000000003,2.7491442659470557
3362.916,2.7470286981696326
3362.92,2.742941805872338
3362.924,2.7400329001783805
3362.928,2.739720373120352
3362.9320000000002,2.7410065421668537
3362.936,2.7405858326656616
3362.94,2.741847961169238
3362.944,2.74085027863784
3362.948,2.7399126974637547
3362.952,2.73861450814579
3362.956,2.7375687445285415
3362.96,2.7370278323127226
3362.964,2.738398143259463
3362.968,2.7404536096795726
3362.972,2.741054623252704
3362.976,2.7412108867817184
3362.98,2.7415955354685226
3362.984,2.7419321030694763
3362.9880000000003,2.7413310894963447
3362.992,2.7418960422550884
3362.996,2.742232609856042
3363.0,2.743146150487202
3363.004,2.7420402855126405
3363.0080000000003,2.7432783734732915
3363.012,2.7457064683087435
3363.016,2.7465839481255157
3363.02,2.7464156643250384
3363.024,2.7458627318377573
3363.0280000000002,2.745838691294832
3363.032,2.7463315224248004
3363.036,2.745982934552384
3363.04,2.745033333106836
3363.044,2.7458266710233694
3363.0480000000002,2.7462233399816367
3363.052,2.74793021852933
3363.056,2.7464517251394263
3363.06,2.7467642521974547
3363.064,2.7455982858655794
3363.068,2.7434947383596184
3363.072,2.7435668599883947
3363.076,2.7460790967240847
3363.08,2.7460911169955473
3363.0840000000003,2.741066643524167
3363.088,2.7382418797304484
3363.092,2.7350685280643137
3363.096,2.7320754804701184
3363.1,2.7353089334935663
3363.1040000000003,2.7457064683087435
3363.108,2.7524738811422047
3363.112,2.749276488933145
3363.116,2.7396602717630394
3363.12,2.7301522370360973
3363.1240000000003,2.7255845338802973
3363.128,2.7264019123397567
3363.132,2.7258249393095504
3363.136,2.7284213179454784
3363.14,2.73176295341209
3363.1440000000002,2.7307652708806915
3363.148,2.734695899648972
3363.152,2.7409224002666153
3363.156,2.744360197904928
3363.16,2.7479061779864047
3363.164,2.752137313541251
3363.168,2.7539403542606458
3363.172,2.7530388339009484
3363.176,2.755250563850073
3363.1800000000003,2.7549500570635073
3363.184,2.753495604216529
3363.188,2.7519209486549236
3363.192,2.751908928383461
3363.196,2.7515362999681194
3363.2000000000003,2.752317617613191
3363.204,2.7512718539959415
3363.208,2.749108205132668
3363.212,2.7462233399816367
3363.216,2.7491202254041305
3363.2200000000003,2.751776705397372
3363.224,2.7434226167308426
3363.228,2.721329357782526
3363.232,2.689655942478491
3363.236,2.6505299588676245
3363.2400000000002,2.6113318536279824
3363.244,2.646106498969375
3363.248,2.7603110981358405
3363.252,2.859334094445001
3363.256,2.951926245521654
3363.26,3.0369576458483114
3363.264,3.026752435376537
3363.268,2.976267295233484
3363.272,2.948812995212833
3363.2760000000003,2.9159736135769223
3363.28,2.8908632664914844
3363.284,2.8829058467832223
3363.288,2.878181880098408
3363.292,2.85352830332855
3363.2960000000003,2.7953501894494126
3363.3,2.7593975575046805
3363.304,2.726750500212173
3363.308,2.708383525417271
3363.312,2.7025897545722826
3363.3160000000003,2.695233348437152
3363.32,2.6889106856478078
3363.324,2.687203807100114
3363.328,2.686109962397015
3363.332,2.68270822557309
3363.3360000000002,2.677900116988037
3363.34,2.6743060558207103
3363.344,2.6779241575309625
3363.348,2.6777919345448735
3363.352,2.674450299078262
3363.356,2.673176150303223
3363.36,2.6710726027972624
3363.364,2.66773096733065
3363.368,2.6624781087014804
3363.372,2.65877586509099
3363.376,2.6553621079956025
3363.38,2.6545086687217556
3363.384,2.6529099726172256
3363.388,2.647572972087817
3363.3920000000003,2.6435341608763725
3363.396,2.638714032019857
3363.4,2.636995133200701
3363.404,2.631766315114456
3363.408,2.6231357602042866
3363.4120000000003,2.6176304758744013
3363.416,2.6150461175099355
3363.42,2.6082065830476977
3363.424,2.601306947228147
3363.428,2.591846993587056
3363.4320000000002,2.584779073967028
3363.436,2.579297830180068
3363.44,2.5700061603394535
3363.444,2.5585508416355656
3363.448,2.548910583922535
3363.452,2.541914785931284
3363.456,2.5341376702949607
3363.46,2.5269735885032323
3363.464,2.5192565742242223
3363.468,2.5146888710684223
3363.472,2.5124891613907607
3363.476,2.509808640854594
3363.48,2.5074646879193807
3363.484,2.505565485028285
3363.4880000000003,2.5087027758800318
3363.492,2.509868742211907
3363.496,2.5178862632774823
3363.5,2.5240045814519623
3363.504,2.5309402780859007
3363.5080000000003,2.540784880413796
3363.512,2.5527210099761897
3363.516,2.5649215855107603
3363.52,2.579814701852962
3363.524,2.597688845517895
3363.5280000000002,2.613759948463434
3363.532,2.628364578290531
3363.536,2.6417671809713656
3363.54,2.6571531284435346
3363.544,2.668716629590586
3363.5480000000002,2.67699859662834
3363.552,2.6837179283759514
3363.556,2.691410902112035
3363.56,2.698599024446689
3363.564,2.7031066262451757
3363.568,2.70920090387673
3363.572,2.7123502149999394
3363.576,2.711316471654153
3363.58,2.710438991837381
3363.5840000000003,2.71148475545463
3363.588,2.713407998888651
3363.592,2.716088519424818
3363.596,2.7133839583457258
3363.6,2.712686782600893
3363.6040000000003,2.7160644788818926
3363.608,2.714585985491989
3363.612,2.7136123435035158
3363.616,2.7119295054987473
3363.62,2.7146941679351526
3363.6240000000003,2.714489823320288
3363.628,2.7126747623294305
3363.632,2.7122780933711637
3363.636,2.712338194728477
3363.64,2.7094773701203705
3363.6440000000002,2.7091167619764915
3363.648,2.712987289387459
3363.652,2.713275775902562
3363.656,2.7117852622411958
3363.66,2.711184248668064
3363.664,2.7115929378977937
3363.668,2.713143552916473
3363.672,2.713732546218142
3363.676,2.7136243637749784
3363.6800000000003,2.7134320394315763
3363.684,2.7136243637749784
3363.688,2.715066796350494
3363.692,2.716437107297234
3363.696,2.71879308050391
3363.7000000000003,2.7170862019562163
3363.704,2.71737468847132
3363.708,2.718492573717344
3363.712,2.718696918332209
3363.716,2.7184805534458816
3363.7200000000003,2.7205239995945294
3363.724,2.720860567195483
3363.728,2.720007127921636
3363.732,2.7214255199542268
3363.736,2.7218342091839562
3363.7400000000002,2.722543405200252
3363.744,2.7223991619427
3363.748,2.7246229121632872
3363.752,2.723937756689917
3363.756,2.72285593225828
3363.76,2.7217981483695683
3363.764,2.722543405200252
3363.768,2.7231083579589956
3363.772,2.723601189088963
3363.7760000000003,2.7269187840126494
3363.78,2.7285535409315678
3363.784,2.7263658515253684
3363.788,2.7248272567781515
3363.792,2.723637249903351
3363.7960000000003,2.7219063308127325
3363.8,2.723937756689917
3363.804,2.728601622017418
3363.808,2.7289021288039836
3363.812,2.728132831430375
3363.8160000000003,2.72856556120303
3363.82,2.72947910183419
3363.824,2.7275919192145572
3363.828,2.7287458652749694
3363.832,2.7289141490754463
3363.8360000000002,2.7268466623838736
3363.84,2.7268466623838736
3363.844,2.72669039885486
3363.848,2.726750500212173
3363.852,2.725464331165671
3363.856,2.7264139326112193
3363.86,2.726185547453429
3363.864,2.722483303842939
3363.868,2.719742681949458
3363.872,2.717807418243974
3363.876,2.714069113819096
3363.88,2.7081431199880184
3363.884,2.709946160707413
3363.888,2.7104149512944558
3363.8920000000003,2.703515315474905
3363.896,2.7067006874125026
3363.9,2.718853181861223
3363.904,2.7209086482813336
3363.908,2.7172064046708426
3363.9120000000003,2.7125064785289537
3363.916,2.706652606326652
3363.92,2.703815822261471
3363.924,2.7037076398183073
3363.928,2.705486639994777
3363.9320000000002,2.7079748361875415
3363.936,2.7095615120206094
3363.94,2.71262668124358
3363.944,2.7141051746334837
3363.948,2.7175069114574084
3363.952,2.7247671554208384
3363.956,2.7303806221938873
3363.96,2.7327365954005636
3363.964,2.736522980911292
3363.968,2.7355373186513563
3363.972,2.734599737477271
3363.976,2.7347560010062852
3363.98,2.7356695416374452
3363.984,2.734900244263837
3363.9880000000003,2.733926602275364
3363.992,2.734671859106047
3363.996,2.7318591155837915
3364.0,2.7325562913286237
3364.004,2.7352608524077158
3364.0080000000003,2.7340588252614526
3364.012,2.7299238518783073
3364.016,2.7149345733644052
3364.02,2.681890847113631
3364.024,2.6414786944562625
3364.0280000000002,2.5968955076013613
3364.032,2.6218015100719345
3364.036,2.745838691294832
3364.04,2.870585068534025
3364.044,2.9770966939644055
3364.0480000000002,3.087370664362589
3364.052,3.1141999102671836
3364.056,3.064592249940902
3364.06,3.0333034833236714
3364.064,3.0049837237577104
3364.068,2.9696200851146486
3364.072,2.9430913459966197
3364.076,2.916766951493456
3364.08,2.861137135164396
3364.0840000000003,2.7948212975050564
3364.088,2.741968163883864
3364.092,2.704008146604873
3364.096,2.6895477600353273
3364.1,2.6839583338052035
3364.1040000000003,2.6792343671203893
3364.108,2.6753518194379593
3364.112,2.670615832481682
3364.116,2.6673102578294583
3364.12,2.6658317644395546
3364.1240000000003,2.663523872318729
3364.128,2.66288679793121
3364.132,2.6620093181144378
3364.136,2.6586316218334383
3364.14,2.654857256594172
3364.1440000000002,2.652248857686781
3364.148,2.6481739856609487
3364.152,2.6448083096514114
3364.156,2.6414666741848
3364.16,2.637548065687982
3364.164,2.632655815202691
3364.168,2.6304080244391783
3364.172,2.6287852877917235
3364.176,2.6239531386637456
3364.1800000000003,2.6228713142321087
3364.184,2.617450171802462
3364.188,2.6106346778831493
3364.192,2.6042999948223424
3364.196,2.5976287441605823
3364.2000000000003,2.5919431557587567
3364.204,2.5847430131526403
3364.208,2.577218323217033
3364.212,2.5692128224229203
3364.216,2.5621689433458177
3364.2200000000003,2.5547404155819113
3364.224,2.5444150023955108
3364.228,2.532983724234548
3364.232,2.521780831231375
3364.236,2.5131502763212055
3364.2400000000002,2.5057337688287618
3364.244,2.4967786665891007
3364.248,2.4900352942985644
3364.252,2.4823663611054054
3364.256,2.476272083473851
3364.26,2.4704542720859375
3364.264,2.4665957649464327
3364.268,2.4621242239623338
3364.272,2.461066440073622
3364.2760000000003,2.4608620954587574
3364.28,2.462833419978629
3364.284,2.4698051774269554
3364.288,2.477257745733787
3364.292,2.485119003270348
3364.2960000000003,2.4958771462294034
3364.3,2.5068516540747865
3364.304,2.5238122571085606
3364.308,2.5451842997691196
3364.312,2.5599451931252313
3364.3160000000003,2.575391241954713
3364.32,2.590969513770284
3364.324,2.6074493059455524
3364.328,2.6264653753994356
3364.332,2.639988180794896
3364.3360000000002,2.6513112765126956
3364.34,2.6623098249010035
3364.344,2.6730198867742088
3364.348,2.6815783200556025
3364.352,2.6866268340699078
3364.356,2.6919277737849283
3364.36,2.6959305241819846
3364.364,2.6978898284303936
3364.368,2.699993375936354
3364.372,2.7006304503238736
3364.376,2.70120742335408
3364.38,2.700582369238023
3364.384,2.7061237143822963
3364.388,2.7056188629808657
3364.3920000000003,2.7014117679689447
3364.396,2.698562963632301
3364.4,2.69960872724955
3364.404,2.7029864235305494
3364.408,2.703094605973713
3364.4120000000003,2.703298950588578
3364.416,2.700654490866799
3364.42,2.6999092340361157
3364.424,2.7014117679689447
3364.428,2.7007266124955747
3364.4320000000002,2.700089538108055
3364.436,2.70024580163707
3364.44,2.7019045990989126
3364.444,2.701111261182379
3364.448,2.6995245853493115
3364.452,2.698947612319105
3364.456,2.697709524358454
3364.46,2.6996447880639383
3364.464,2.7035994573751436
3364.468,2.702830160001535
3364.472,2.702673896472521
3364.476,2.701700254484048
3364.48,2.699572666435162
3364.484,2.7007025719526494
3364.4880000000003,2.7068569509415172
3364.492,2.7074219037002605
3364.496,2.706592504969339
3364.5,2.7042485520341257
3364.504,2.70577512650988
3364.5080000000003,2.707337761800022
3364.512,2.707998876730467
3364.516,2.7089965592618652
3364.52,2.7088883768187015
3364.524,2.7088883768187015
3364.5280000000002,2.707890694287303
3364.532,2.708684032203837
3364.536,2.7085998903035984
3364.54,2.7112683905683026
3364.544,2.7120256676704484
3364.5480000000002,2.7110640459534383
3364.552,2.7137205259466795
3364.556,2.7165332694689353
3364.56,2.7148023503783163
3364.564,2.713828708389843
3364.568,2.7138407286613058
3364.572,2.7134320394315763
3364.576,2.7137445664896047
3364.58,2.715006694993181
3364.5840000000003,2.714549924677601
3364.588,2.715691850466551
3364.592,2.7172184249423053
3364.596,2.717518931728871
3364.6,2.718660857517821
3364.6040000000003,2.7174107492857074
3364.608,2.715006694993181
3364.612,2.7159442761672663
3364.616,2.7192618710909526
3364.62,2.718300249373942
3364.6240000000003,2.719442175162892
3364.628,2.719382073805579
3364.632,2.7186127764319705
3364.636,2.71833631018833
3364.64,2.715331242322672
3364.6440000000002,2.712951228573071
3364.648,2.709585552563534
3364.652,2.703647538460994
3364.656,2.7013516666116315
3364.66,2.7046812818067805
3364.664,2.7061116941108336
3364.668,2.7015439909550336
3364.672,2.6992601393771336
3364.676,2.708551809217748
3364.6800000000003,2.7121218298421494
3364.684,2.7085277686748226
3364.688,2.7060515927535205
3364.692,2.6971806324140983
3364.696,2.6958343620102836
3364.7000000000003,2.7015079301406457
3364.704,2.7029744032590868
3364.708,2.7040562276907236
3364.712,2.703395112760279
3364.716,2.7082032213453315
3364.7200000000003,2.7103187891227547
3364.724,2.7120857690277616
3364.728,2.7195864184204437
3364.732,2.7242022026620947
3364.736,2.7319793182984173
3364.7400000000002,2.7365951025400683
3364.744,2.7353329740364916
3364.748,2.733662156303186
3364.752,2.7333015481593073
3364.756,2.7313783047252858
3364.76,2.7286497031032684
3364.764,2.73240002779961
3364.768,2.731895176398179
3364.772,2.730488804637051
3364.7760000000003,2.728481419302792
3364.78,2.7268106015694857
3364.784,2.725392209536895
3364.788,2.725404229808358
3364.792,2.7213173375110635
3364.7960000000003,2.698887510961792
3364.8,2.663367608789715
3364.804,2.6213086789419666
3364.808,2.587988486447551
3364.812,2.6463829652130166
3364.8160000000003,2.7805291947359874
3364.82,2.889865583960086
3364.824,3.001269459875757
3364.828,3.0931043338502646
3364.832,3.0836684207520983
3364.8360000000002,3.033940557711191
3364.84,3.0133738732386273
3364.844,2.9803061064449277
3364.848,2.9494380493288896
3364.852,2.9279698444966287
3364.856,2.9029195987685044
3364.86,2.8412075250793527
3364.864,2.779663735190678
3364.868,2.7293709193910263
3364.872,2.6973729567575004
3364.876,2.6869994624852493
3364.88,2.6827563066589404
3364.884,2.6785492116470193
3364.888,2.6751835356374825
3364.8920000000003,2.6720462447857356
3364.896,2.6686324876903473
3364.9,2.666432778012686
3364.904,2.6646657981076793
3364.908,2.662069419471751
3364.9120000000003,2.6576820203878904
3364.916,2.6567925202996556
3364.92,2.6524532023016456
3364.924,2.6483542897328882
3364.928,2.6455175056677067
3364.9320000000002,2.644171235263892
3364.936,2.64169505934259
3364.94,2.6408656606116683
3364.944,2.637740390031384
3364.948,2.6314898488708156
3364.952,2.6285569026339335
3364.956,2.6250590036383072
3364.96,2.619433516593796
3364.964,2.614156617421701
3364.968,2.6110914481987297
3364.972,2.6065718261287802
3364.976,2.600249163339436
3364.98,2.591558507071953
3364.984,2.5830241143334844
3364.9880000000003,2.5765812488295134
3364.992,2.5685877683068634
3364.996,2.5613756054292844
3365.0,2.5523123207464598
3365.004,2.5415421575159423
3365.0080000000003,2.5310965416149154
3365.012,2.522694371862535
3365.016,2.5140878574952907
3365.02,2.505481343128047
3365.024,2.498040795092677
3365.0280000000002,2.4906483281431586
3365.032,2.4833760639082665
3365.036,2.475983596958748
3365.04,2.4713678127170975
3365.044,2.4686993124523933
3365.0480000000002,2.468482947566066
3365.052,2.4697931571554927
3365.056,2.472040947919005
3365.06,2.4747214684551717
3365.064,2.4780270431073954
3365.068,2.484926678926946
3365.072,2.4947712812548413
3365.076,2.5085465123510176
3365.08,2.5215404258021223
3365.0840000000003,2.5377317314622876
3365.088,2.5558823413708613
3365.092,2.5721337483883393
3365.096,2.5892986960369777
3365.1,2.606103035541737
3365.1040000000003,2.6231357602042866
3365.108,2.638221200889889
3365.112,2.6501092493664324
3365.116,2.661432345084231
3365.12,2.6692695620778673
3365.1240000000003,2.6768182925564004
3365.128,2.6843550027634704
3365.132,2.6927691927873125
3365.136,2.69938034209176
3365.14,2.6986711460754647
3365.1440000000002,2.7015560112264962
3365.148,2.7053303764657626
3365.152,2.705967450853282
3365.156,2.707530086143424
3365.16,2.707457964514649
3365.164,2.707301700985634
3365.168,2.7062559373683857
3365.172,2.7047534034355567
3365.176,2.7047534034355567
3365.1800000000003,2.703911984433172
3365.184,2.7025296532149694
3365.188,2.7063040184542357
3365.192,2.708083018630705
3365.196,2.708083018630705
3365.2000000000003,2.7065804846978763
3365.204,2.706291998182773
3365.208,2.7058953292245063
3365.212,2.7067367482268905
3365.216,2.7059914913962073
3365.2200000000003,2.703984106061948
3365.224,2.7054385589089263
3365.228,2.708095038902168
3365.232,2.708900397090164
3365.236,2.7084917078604347
3365.2400000000002,2.706820890127129
3365.244,2.704993808864809
3365.248,2.7056909846096415
3365.252,2.7081671605309436
3365.256,2.7096336336493847
3365.26,2.7078185726585273
3365.264,2.707566146957812
3365.268,2.708804234918463
3365.272,2.7110640459534383
3365.2760000000003,2.7123141541855516
3365.28,2.713023350201847
3365.284,2.7168457965269637
3365.288,2.7182641885595547
3365.292,2.715631749109238
3365.2960000000003,2.7161967018679816
3365.3,2.716869837069889
3365.304,2.717951661501526
3365.308,2.7175069114574084
3365.312,2.7165332694689353
3365.3160000000003,2.718696918332209
3365.32,2.7182521682880916
3365.324,2.720391776608441
3365.328,2.7227477498151162
3365.332,2.723420885017024
3365.3360000000002,2.722759770086579
3365.34,2.7239137161469915
3365.344,2.726389892068294
3365.348,2.726930804284112
3365.352,2.725332108179582
3365.356,2.725067662207404
3365.36,2.725079682478867
3365.364,2.726125446096116
3365.368,2.725007560850091
3365.372,2.723709371532127
3365.376,2.725404229808358
3365.38,2.7283131355023147
3365.384,2.727627980028945
3365.388,2.7286857639176563
3365.3920000000003,2.7319432574840294
3365.396,2.7327125548576383
3365.4,2.7298877910639194
3365.404,2.7277001016577205
3365.408,2.72669039885486
3365.4120000000003,2.728625662560343
3365.416,2.7287458652749694
3365.42,2.7304647640941258
3365.424,2.729983953235621
3365.428,2.7280006084442863
3365.4320000000002,2.727555858400169
3365.436,2.7261975677248915
3365.44,2.7190094453902374
3365.444,2.717134283042067
3365.448,2.71833631018833
3365.452,2.7147302287495405
3365.456,2.713456079974502
3365.46,2.721918351084195
3365.464,2.728433338216941
3365.468,2.7253200879081194
3365.472,2.7229400741585184
3365.476,2.717026100598903
3365.48,2.7113044513826905
3365.484,2.712230012285313
3365.4880000000003,2.7135883029605905
3365.492,2.717074181684754
3365.496,2.7192378305480274
3365.5,2.722483303842939
3365.504,2.7246950337920626
3365.5080000000003,2.7258249393095504
3365.512,2.7331092238159047
3365.516,2.7390712784613704
3365.52,2.741463312482434
3365.524,2.7413791705821953
3365.5280000000002,2.7444804006195547
3365.532,2.743939488403736
3365.536,2.7438673667749605
3365.54,2.74381928568911
3365.544,2.7422446301275047
3365.5480000000002,2.741968163883864
3365.552,2.742400893656519
3365.556,2.7420883665984905
3365.56,2.741487353025359
3365.564,2.7405738123941994
3365.568,2.741054623252704
3365.572,2.739636231220114
3365.576,2.7347079199204347
3365.58,2.7148263909212416
3365.5840000000003,2.682371657972136
3365.588,2.6427288026883757
3365.592,2.6073771843167766
3365.596,2.646755593628358
3365.6,2.7561040031239195
3365.6040000000003,2.8528311275837175
3365.608,2.9551596985451023
3365.612,3.0452756737004525
3365.616,3.035370970015244
3365.62,2.984320877113447
3365.6240000000003,2.9588258813412045
3365.628,2.932898155796308
3365.632,2.90801619386866
3365.636,2.9004193823042774
3365.64,2.895262685846808
3365.6440000000002,2.8669309060093844
3365.648,2.807274298740343
3365.652,2.763628693059527
3365.656,2.7247911959637636
3365.66,2.706712707683965
3365.664,2.7025897545722826
3365.668,2.6971445715997104
3365.672,2.6926970711585367
3365.676,2.688381793703452
3365.6800000000003,2.6869033003135483
3365.684,2.684427124392246
3365.688,2.6844151041207835
3365.692,2.6841626784200683
3365.696,2.680484475352503
3365.7000000000003,2.6779241575309625
3365.704,2.6762653600691193
3365.708,2.673043927317134
3365.712,2.6705076500385183
3365.716,2.669377744521031
3365.7200000000003,2.6683199606323194
3365.724,2.6660361090544193
3365.728,2.664906203536932
3365.732,2.6622136627293025
3365.736,2.65813879070347
3365.7400000000002,2.655145743109275
3365.744,2.6530061347889267
3365.748,2.65055399941055
3365.752,2.645012654266276
3365.756,2.6400963632380594
3365.76,2.6356729033398114
3365.764,2.629782970323122
3365.768,2.6232319223759872
3365.772,2.6156831918974546
3365.7760000000003,2.606692028843406
3365.78,2.5999967376387207
3365.784,2.5944674127659098
3365.788,2.587964445904626
3365.792,2.579995005924901
3365.7960000000003,2.5717370794300725
3365.8,2.564428754380793
3365.804,2.557541138832705
3365.808,2.551038171971421
3365.812,2.5466507728875607
3365.8160000000003,2.542022968374447
3365.82,2.5366859678450386
3365.824,2.5326711971765197
3365.828,2.530050777997666
3365.832,2.5283799602643606
3365.8360000000002,2.527995311577556
3365.84,2.528992994108955
3365.844,2.532202406589477
3365.848,2.540340130369679
3365.852,2.5439462118084686
3365.856,2.547408049989706
3365.86,2.555533753498445
3365.864,2.5663159370004256
3365.868,2.578684796335474
3365.872,2.591606588157803
3365.876,2.6060910152702745
3365.88,2.622270300658977
3365.884,2.638401504961829
3365.888,2.6490033843918703
3365.8920000000003,2.661865074856886
3365.896,2.672647258358867
3365.9,2.6841145973342178
3365.904,2.6927451522443873
3365.908,2.700029436750742
3365.9120000000003,2.7058833089530436
3365.916,2.7100663634220394
3365.92,2.7139128502900816
3365.924,2.7205841009518426
3365.928,2.723709371532127
3365.9320000000002,2.7268106015694857
3365.936,2.726125446096116
3365.94,2.7254162500798205
3365.944,2.7274356556855426
3365.948,2.726774540755098
3365.952,2.726389892068294
3365.956,2.726185547453429
3365.96,2.726642317769009
3365.964,2.725981202838564
3365.968,2.7251277635647173
3365.972,2.7231564390448457
3365.976,2.722038553798821
3365.98,2.7214375402256894
3365.984,2.7196825805921447
3365.9880000000003,2.720391776608441
3365.992,2.7211490537105862
3365.996,2.721004810453035
3366.0,2.7205239995945294
3366.004,2.7201153103647995
3366.0080000000003,2.721125013167661
3366.012,2.721341378053989
3366.016,2.7246469527062125
3366.02,2.723384824202636
3366.024,2.7238175539752905
3366.0280000000002,2.723685330989202
3366.032,2.723745432346515
3366.036,2.7243464459196467
3366.04,2.7246108918918246
3366.044,2.7255725136088347
3366.0480000000002,2.7252359460078814
3366.052,2.7265581758687705
3366.056,2.7285535409315678
3366.06,2.7292266761334747
3366.064,2.7275077773143184
3366.068,2.729274757219325
3366.072,2.728132831430375
3366.076,2.727892426001123
3366.08,2.7266302974975463
3366.0840000000003,2.727688081386258
3366.088,2.729539203191503
3366.092,2.730224358664873
3366.096,2.7303806221938873
3366.1,2.729899811335382
3366.1040000000003,2.7285535409315678
3366.108,2.7297315275349057
3366.112,2.7291184936903115
3366.116,2.729515162648578
3366.12,2.732135581827432
3366.1240000000003,2.731366284453823
3366.128,2.7302964802936494
3366.132,2.732279825084983
3366.136,2.7298517302495315
3366.14,2.7269187840126494
3366.1440000000002,2.733602054945873
3366.148,2.7342030685190046
3366.152,2.7305729465372894
3366.156,2.725764837952237
3366.16,2.723805533703828
3366.164,2.721918351084195
3366.168,2.7194301548914295
3366.172,2.729130513961774
3366.176,2.737304298556363
3366.1800000000003,2.7382779405448363
3366.184,2.732424068342535
3366.188,2.720031168464561
3366.192,2.7100904039649647
3366.196,2.7101384850508152
3366.2000000000003,2.7132276948167116
3366.204,2.7161005396962805
3366.208,2.719093587290476
3366.212,2.718372371002718
3366.216,2.7226996687292657
3366.2200000000003,2.727459696228468
3366.224,2.7299238518783073
3366.228,2.7355974200086695
3366.232,2.7407180556517505
3366.236,2.7440236303039742
3366.2400000000002,2.741174825967331
3366.244,2.7399968393639926
3366.248,2.7400088596354553
3366.252,2.7380495553870463
3366.256,2.738085616201434
3366.26,2.7397684542062026
3366.264,2.7387347108604168
3366.268,2.7376889472431674
3366.272,2.737556724257079
3366.2760000000003,2.7361022714101
3366.28,2.733902561732439
3366.284,2.73422710906193
3366.288,2.7352728726791784
3366.292,2.7308854735953183
3366.2960000000003,2.7137926475754552
3366.3,2.683946313533741
3366.304,2.6517800670997382
3366.308,2.6104543738112103
3366.312,2.6131589348903024
3366.3160000000003,2.701459849054795
3366.32,2.8042572106032226
3366.324,2.889216489301104
3366.328,2.9930475941953176
3366.332,3.018626731867798
3366.3360000000002,2.9733343489966013
3366.34,2.9351940276456703
3366.344,2.907535383010155
3366.348,2.877532785439426
3366.352,2.8663419127077154
3366.356,2.8627959326262387
3366.36,2.8551510399760054
3366.364,2.8061804540372437
3366.368,2.7621622199410862
3366.372,2.7254883717085967
3366.376,2.696603659383892
3366.38,2.6889227059192704
3366.384,2.6842227797773814
3366.388,2.6806888199673677
3366.3920000000003,2.6773111236863683
3366.396,2.6766139479415356
3366.4,2.674017569305607
3366.404,2.6691012782773904
3366.408,2.668055514660141
3366.4120000000003,2.6673703591867715
3366.416,2.665988027968569
3366.42,2.6628627573882846
3366.424,2.65923263540657
3366.428,2.6567684797567304
3366.4320000000002,2.654496648450293
3366.436,2.6519723914431403
3366.44,2.649760661494016
3366.444,2.6484023708187387
3366.448,2.645493465124781
3366.452,2.641899403957454
3366.456,2.638461606319142
3366.46,2.6330885449753456
3366.464,2.6269221457150156
3366.468,2.621885651972173
3366.472,2.6184238137909346
3366.476,2.6125338807742455
3366.48,2.6072449613306876
3366.484,2.601895940529816
3366.4880000000003,2.5935298315918245
3366.492,2.587687979660985
3366.496,2.5816538033867444
3366.5,2.575210937882774
3366.504,2.565366335554878
3366.5080000000003,2.5581060915914486
3366.512,2.5496197799388303
3366.516,2.5392102248521917
3366.52,2.5299305752830397
3366.524,2.5254349937560154
3366.5280000000002,2.519280614767148
3366.532,2.5126694654627006
3366.536,2.5071521608613523
3366.54,2.5027888023204174
3366.544,2.5002284844988765
3366.5480000000002,2.498233119436079
3366.552,2.4961295719301186
3366.556,2.497355639619307
3366.56,2.4993750452250296
3366.564,2.5030893091069832
3366.568,2.5088710596805086
3366.572,2.5170568645465607
3366.576,2.5263845952015633
3366.58,2.5390780018661023
3366.5840000000003,2.551651205816015
3366.588,2.563695517821572
3366.592,2.577218323217033
3366.596,2.592219622002397
3366.6,2.6075454681172534
3366.6040000000003,2.621705347900233
3366.608,2.6359373493119893
3366.612,2.6462026611410767
3366.616,2.656516054056015
3366.62,2.6648941832654693
3366.6240000000003,2.6738733260480556
3366.628,2.6809652862110083
3366.632,2.686975421942324
3366.636,2.6914710034693483
3366.64,2.6960988079824615
3366.6440000000002,2.697805686530155
